"","x"
"1",1.19
"2",-3.16
"3",-4.3
"4",-5.51
"5",-9.06
"6",-15.42
"7",-23.29
"8",-30.45
"9",-35.02
"10",-36.23
"11",-34.51
"12",-31.01
"13",-26.86
"14",-22.41
"15",-17.22
"16",-10.47
"17",-1.61
"18",9.09
"19",20.53
"20",31.13
"21",39.6
"22",45.27
"23",48.04
"24",48.05
"25",45.41
"26",40.54
"27",34.45
"28",28.96
"29",26.23
"30",27.71
"31",33.14
"32",40.21
"33",45.34
"34",45.39
"35",39.21
"36",28.07
"37",14.95
"38",3
"39",-6.12
"40",-12.86
"41",-19.16
"42",-27.19
"43",-38
"44",-50.91
"45",-64.04
"46",-75.12
"47",-82.47
"48",-85.52
"49",-84.75
"50",-81.19
"51",-75.94
"52",-69.91
"53",-63.83
"54",-58.18
"55",-53.2
"56",-48.79
"57",-44.52
"58",-39.84
"59",-34.16
"60",-27.17
"61",-18.77
"62",-9.29
"63",0.59
"64",9.87
"65",17.36
"66",22.31
"67",24.93
"68",26.61
"69",29.38
"70",34.7
"71",42.35
"72",50.03
"73",54.37
"74",52.51
"75",43.91
"76",30.77
"77",17.16
"78",7.1
"79",2.64
"80",3.13
"81",5.89
"82",7.76
"83",6.69
"84",2.52
"85",-3.39
"86",-9.13
"87",-13.51
"88",-16.49
"89",-18.99
"90",-22.03
"91",-25.99
"92",-30.28
"93",-33.59
"94",-34.39
"95",-31.62
"96",-25.1
"97",-15.65
"98",-4.75
"99",5.84
"100",14.56
"101",20.34
"102",23.1
"103",23.87
"104",24.57
"105",27.4
"106",33.77
"107",43.52
"108",54.66
"109",63.99
"110",68.31
"111",65.74
"112",56.25
"113",41.57
"114",24.21
"115",6.41
"116",-10.58
"117",-26.42
"118",-40.93
"119",-53.49
"120",-62.8
"121",-67.63
"122",-67.51
"123",-63.34
"124",-57.21
"125",-51.62
"126",-48.32
"127",-47.47
"128",-47.5
"129",-45.81
"130",-40.1
"131",-29.57
"132",-15.18
"133",0.68
"134",15.32
"135",26.74
"136",34.13
"137",37.88
"138",39.2
"139",39.78
"140",41.39
"141",45.55
"142",52.84
"143",62.35
"144",71.41
"145",76.17
"146",73.05
"147",60.44
"148",39.68
"149",14.82
"150",-9.02
"151",-27.68
"152",-39.22
"153",-44
"154",-43.74
"155",-40.28
"156",-34.91
"157",-28.39
"158",-21.36
"159",-14.81
"160",-9.99
"161",-7.89
"162",-8.57
"163",-11.06
"164",-13.32
"165",-12.93
"166",-7.76
"167",3.36
"168",19.97
"169",39.69
"170",58.59
"171",72.16
"172",76.68
"173",70.72
"174",55.71
"175",35.63
"176",15.54
"177",-0.27
"178",-9.71
"179",-13.2
"180",-12.88
"181",-11.13
"182",-9.38
"183",-7.75
"184",-5.69
"185",-2.94
"186",-0.22
"187",0.91
"188",-1.17
"189",-7.18
"190",-16.3
"191",-26.32
"192",-34.62
"193",-39.32
"194",-39.99
"195",-37.78
"196",-34.7
"197",-32.65
"198",-32.62
"199",-34.26
"200",-36.16
"201",-36.47
"202",-33.71
"203",-27.05
"204",-16.55
"205",-2.79
"206",13.05
"207",29.15
"208",43.02
"209",51.91
"210",54
"211",49.58
"212",41.68
"213",34.96
"214",33.52
"215",38.42
"216",46.81
"217",52.99
"218",51.43
"219",39.74
"220",20.09
"221",-1.96
"222",-20.29
"223",-31.11
"224",-34.16
"225",-31.85
"226",-27.32
"227",-22.69
"228",-18.45
"229",-14.27
"230",-10.2
"231",-7.25
"232",-7.18
"233",-11.43
"234",-20.04
"235",-31.13
"236",-41.44
"237",-47.36
"238",-46.32
"239",-37.78
"240",-23.26
"241",-5.86
"242",10.85
"243",23.87
"244",31.5
"245",33.52
"246",31.07
"247",26.17
"248",21.22
"249",18.37
"250",18.84
"251",22.46
"252",27.63
"253",32
"254",33.33
"255",30.59
"256",24.21
"257",15.64
"258",6.38
"259",-2.99
"260",-12.94
"261",-24.31
"262",-37.39
"263",-51.18
"264",-63.53
"265",-72.07
"266",-75.43
"267",-73.97
"268",-69.74
"269",-65.42
"270",-63.14
"271",-63.39
"272",-64.77
"273",-64.58
"274",-59.95
"275",-49.01
"276",-31.7
"277",-9.72
"278",14.15
"279",36.86
"280",55.85
"281",69.2
"282",75.75
"283",75.47
"284",70.05
"285",62.99
"286",58.68
"287",60.42
"288",68.4
"289",79
"290",85.88
"291",83.06
"292",67.95
"293",42.98
"294",14.46
"295",-10.45
"296",-27.06
"297",-34.74
"298",-36.27
"299",-35.53
"300",-35.33
"301",-36.28
"302",-37.41
"303",-37.51
"304",-36.3
"305",-34.75
"306",-34.53
"307",-36.76
"308",-41.11
"309",-45.59
"310",-47.29
"311",-43.74
"312",-34.17
"313",-20.02
"314",-4.26
"315",9.66
"316",19.14
"317",23.06
"318",21.84
"319",17.02
"320",10.7
"321",5.05
"322",1.88
"323",2.12
"324",5.38
"325",10.11
"326",14.04
"327",15.3
"328",13.19
"329",8.71
"330",3.94
"331",0.88
"332",0.19
"333",0.7
"334",0.09
"335",-3.95
"336",-12.37
"337",-24.37
"338",-37.65
"339",-49.55
"340",-58.12
"341",-62.77
"342",-64.34
"343",-64.19
"344",-63.35
"345",-61.83
"346",-58.67
"347",-52.55
"348",-42.72
"349",-29.7
"350",-15.1
"351",-1.17
"352",10.51
"353",19.56
"354",26.79
"355",33.54
"356",40.93
"357",49.56
"358",59.55
"359",70.71
"360",82.54
"361",93.97
"362",103.09
"363",107.38
"364",104.47
"365",93.21
"366",74.46
"367",50.99
"368",26.7
"369",5.17
"370",-11.2
"371",-21.67
"372",-26.89
"373",-28.26
"374",-27.57
"375",-26.58
"376",-26.72
"377",-28.73
"378",-32.45
"379",-36.82
"380",-40.3
"381",-41.49
"382",-39.55
"383",-34.63
"384",-27.68
"385",-19.92
"386",-12.2
"387",-4.66
"388",3.23
"389",12.26
"390",22.87
"391",34.65
"392",46.4
"393",56.48
"394",63.39
"395",66.37
"396",65.55
"397",61.95
"398",57.01
"399",52.23
"400",48.58
"401",46.48
"402",45.71
"403",45.54
"404",44.8
"405",42.13
"406",36.15
"407",25.86
"408",11
"409",-7.78
"410",-28.9
"411",-50.27
"412",-69.7
"413",-85.4
"414",-96.29
"415",-102.08
"416",-103.22
"417",-100.79
"418",-96.36
"419",-91.55
"420",-87.65
"421",-85
"422",-82.78
"423",-79.19
"424",-72.25
"425",-60.45
"426",-43.34
"427",-21.75
"428",2.43
"429",26.53
"430",47.57
"431",62.99
"432",71.49
"433",73.89
"434",73.13
"435",73.19
"436",77.03
"437",84.49
"438",91.68
"439",92.42
"440",81.2
"441",56.42
"442",21.7
"443",-15.2
"444",-45.61
"445",-63.53
"446",-67.74
"447",-61.54
"448",-50.61
"449",-40.3
"450",-33.69
"451",-31.33
"452",-32.06
"453",-34.28
"454",-36.99
"455",-39.88
"456",-42.91
"457",-45.66
"458",-47.08
"459",-45.62
"460",-39.99
"461",-29.78
"462",-15.81
"463",0.04
"464",15.49
"465",28.61
"466",38.35
"467",44.59
"468",48.01
"469",49.67
"470",50.62
"471",51.55
"472",52.54
"473",53.08
"474",52.14
"475",48.65
"476",42.18
"477",33.24
"478",23.32
"479",14.15
"480",6.92
"481",1.45
"482",-3.69
"483",-10.37
"484",-19.83
"485",-31.82
"486",-44.6
"487",-55.83
"488",-63.69
"489",-67.65
"490",-68.59
"491",-68.29
"492",-68.32
"493",-69.22
"494",-70.18
"495",-69.39
"496",-64.84
"497",-55.12
"498",-39.77
"499",-19.36
"500",4.56
"501",29.85
"502",53.76
"503",73.27
"504",85.48
"505",88.76
"506",83.96
"507",74.67
"508",66.21
"509",63.18
"510",67.04
"511",74.94
"512",80.91
"513",78.87
"514",65.89
"515",43.87
"516",18.68
"517",-2.76
"518",-15.76
"519",-19.68
"520",-17.6
"521",-14.19
"522",-13.22
"523",-16.11
"524",-22.11
"525",-29.31
"526",-36.05
"527",-41.62
"528",-46.14
"529",-49.96
"530",-52.92
"531",-54.05
"532",-52.07
"533",-46.02
"534",-36.1
"535",-23.71
"536",-10.93
"537",0.27
"538",8.87
"539",14.87
"540",19.04
"541",22.28
"542",25.18
"543",27.85
"544",30.31
"545",32.57
"546",34.74
"547",36.83
"548",38.45
"549",38.89
"550",37.23
"551",32.96
"552",26.11
"553",17.38
"554",7.78
"555",-1.84
"556",-11.03
"557",-19.67
"558",-27.77
"559",-35.17
"560",-41.52
"561",-46.53
"562",-50.13
"563",-52.52
"564",-54.09
"565",-54.95
"566",-54.79
"567",-52.77
"568",-47.93
"569",-39.69
"570",-28.3
"571",-14.69
"572",-0.29
"573",13.38
"574",24.99
"575",33.54
"576",38.76
"577",41.29
"578",42.73
"579",45.02
"580",49.52
"581",56.06
"582",62.59
"583",65.98
"584",63.53
"585",54.54
"586",40.72
"587",25.48
"588",12.16
"589",2.57
"590",-3.58
"591",-7.96
"592",-12.26
"593",-17.15
"594",-22.13
"595",-26.19
"596",-28.7
"597",-29.89
"598",-30.64
"599",-31.85
"600",-33.74
"601",-35.58
"602",-36.23
"603",-34.69
"604",-30.79
"605",-25.18
"606",-19
"607",-13.3
"608",-8.51
"609",-4.36
"610",-0.1
"611",4.98
"612",10.98
"613",17.27
"614",22.63
"615",25.79
"616",25.97
"617",23.33
"618",18.83
"619",13.87
"620",9.65
"621",6.85
"622",5.54
"623",5.44
"624",6.19
"625",7.41
"626",8.69
"627",9.41
"628",8.87
"629",6.57
"630",2.63
"631",-2.27
"632",-6.91
"633",-10.09
"634",-11.1
"635",-9.9
"636",-7
"637",-3.15
"638",1.02
"639",5.26
"640",9.48
"641",13.82
"642",18.32
"643",22.85
"644",27.05
"645",30.46
"646",32.64
"647",33.4
"648",32.82
"649",31.18
"650",28.81
"651",25.87
"652",22.33
"653",18
"654",12.81
"655",6.9
"656",0.72
"657",-5.08
"658",-9.87
"659",-13.22
"660",-14.98
"661",-15.36
"662",-14.7
"663",-13.43
"664",-11.88
"665",-10.17
"666",-8.26
"667",-6.06
"668",-3.43
"669",-0.34
"670",3.16
"671",6.88
"672",10.56
"673",13.8
"674",16.18
"675",17.2
"676",16.57
"677",14.43
"678",11.41
"679",8.56
"680",6.82
"681",6.63
"682",7.52
"683",8.37
"684",7.77
"685",4.64
"686",-1.38
"687",-9.83
"688",-19.65
"689",-29.63
"690",-38.62
"691",-45.92
"692",-51.07
"693",-53.82
"694",-53.98
"695",-51.42
"696",-46.3
"697",-39.15
"698",-31
"699",-23.21
"700",-17.17
"701",-13.7
"702",-12.7
"703",-13.25
"704",-13.93
"705",-13.44
"706",-11.12
"707",-7.15
"708",-2.27
"709",2.53
"710",6.54
"711",9.46
"712",11.32
"713",12.24
"714",12.3
"715",11.47
"716",9.8
"717",7.52
"718",5
"719",2.62
"720",0.66
"721",-0.75
"722",-1.54
"723",-1.54
"724",-0.55
"725",1.61
"726",4.75
"727",8.36
"728",11.61
"729",13.78
"730",14.54
"731",14.17
"732",13.39
"733",12.98
"734",13.43
"735",14.71
"736",16.31
"737",17.49
"738",17.58
"739",16.21
"740",13.45
"741",9.61
"742",5.14
"743",0.38
"744",-4.48
"745",-9.39
"746",-14.16
"747",-18.45
"748",-21.72
"749",-23.4
"750",-23.13
"751",-20.97
"752",-17.46
"753",-13.42
"754",-9.68
"755",-6.76
"756",-4.65
"757",-2.96
"758",-1.08
"759",1.46
"760",4.75
"761",8.4
"762",11.68
"763",13.73
"764",13.86
"765",11.84
"766",7.88
"767",2.63
"768",-3.11
"769",-8.59
"770",-13.26
"771",-16.84
"772",-19.2
"773",-20.37
"774",-20.43
"775",-19.49
"776",-17.67
"777",-15.05
"778",-11.66
"779",-7.52
"780",-2.75
"781",2.33
"782",7.22
"783",11.33
"784",14.24
"785",15.8
"786",16.19
"787",15.84
"788",15.19
"789",14.56
"790",14.11
"791",13.9
"792",13.92
"793",14.21
"794",14.66
"795",14.96
"796",14.69
"797",13.38
"798",10.81
"799",7.2
"800",3.21
"801",-0.27
"802",-2.46
"803",-3
"804",-2.01
"805",-0.04
"806",2.2
"807",4.15
"808",5.51
"809",6.29
"810",6.65
"811",6.8
"812",6.83
"813",6.78
"814",6.69
"815",6.53
"816",6.32
"817",6.09
"818",5.79
"819",5.32
"820",4.62
"821",3.58
"822",2.29
"823",0.91
"824",-0.34
"825",-1.29
"826",-1.85
"827",-2.03
"828",-1.84
"829",-1.26
"830",-0.26
"831",1.21
"832",3.05
"833",5.03
"834",6.78
"835",7.93
"836",8.27
"837",7.9
"838",7.27
"839",6.95
"840",7.43
"841",8.77
"842",10.61
"843",12.3
"844",13.1
"845",12.55
"846",10.56
"847",7.44
"848",3.58
"849",-0.6
"850",-4.86
"851",-8.96
"852",-12.47
"853",-14.95
"854",-16.07
"855",-15.86
"856",-14.76
"857",-13.59
"858",-13.08
"859",-13.67
"860",-15.23
"861",-17.14
"862",-18.73
"863",-19.48
"864",-19.34
"865",-18.56
"866",-17.52
"867",-16.56
"868",-15.86
"869",-15.55
"870",-15.76
"871",-16.72
"872",-18.68
"873",-21.72
"874",-25.63
"875",-29.8
"876",-33.41
"877",-35.77
"878",-36.49
"879",-35.7
"880",-33.95
"881",-31.86
"882",-29.89
"883",-28.03
"884",-25.92
"885",-23.04
"886",-19.05
"887",-13.93
"888",-7.91
"889",-1.2
"890",6.15
"891",14.22
"892",22.96
"893",31.94
"894",40.3
"895",46.9
"896",50.68
"897",51.03
"898",47.83
"899",41.46
"900",32.54
"901",21.89
"902",10.53
"903",-0.35
"904",-9.49
"905",-15.86
"906",-18.98
"907",-19.19
"908",-17.42
"909",-14.89
"910",-12.66
"911",-11.35
"912",-11.11
"913",-11.67
"914",-12.65
"915",-13.61
"916",-14.18
"917",-13.96
"918",-12.6
"919",-9.88
"920",-5.77
"921",-0.49
"922",5.55
"923",11.81
"924",17.78
"925",23.02
"926",27.29
"927",30.41
"928",32.27
"929",32.82
"930",32.13
"931",30.46
"932",28.29
"933",26.13
"934",24.29
"935",22.74
"936",20.98
"937",18.27
"938",14.07
"939",8.31
"940",1.61
"941",-5.1
"942",-11.02
"943",-15.9
"944",-20.18
"945",-24.53
"946",-29.43
"947",-34.69
"948",-39.41
"949",-42.34
"950",-42.47
"951",-39.44
"952",-33.94
"953",-27.41
"954",-21.54
"955",-17.73
"956",-16.48
"957",-17.28
"958",-18.74
"959",-19.06
"960",-16.65
"961",-10.64
"962",-1.11
"963",10.98
"964",24.09
"965",36.56
"966",46.98
"967",54.5
"968",58.78
"969",59.94
"970",58.43
"971",55.07
"972",50.98
"973",47.24
"974",44.43
"975",42.16
"976",38.99
"977",33
"978",22.76
"979",8.23
"980",-8.81
"981",-25.37
"982",-38.49
"983",-46.47
"984",-49.45
"985",-49.02
"986",-47.15
"987",-45.15
"988",-43.29
"989",-41.15
"990",-38.23
"991",-34.57
"992",-30.69
"993",-27.31
"994",-24.82
"995",-22.9
"996",-20.45
"997",-16.05
"998",-8.56
"999",2.24
"1000",15.31
"1001",28.43
"1002",38.84
"1003",44.09
"1004",43.03
"1005",36.35
"1006",26.33
"1007",16.1
"1008",8.37
"1009",4.64
"1010",4.81
"1011",7.69
"1012",11.59
"1013",15.05
"1014",17.05
"1015",17.05
"1016",14.82
"1017",10.3
"1018",3.62
"1019",-4.96
"1020",-14.87
"1021",-25.04
"1022",-33.8
"1023",-39.34
"1024",-40.34
"1025",-36.69
"1026",-29.93
"1027",-22.76
"1028",-17.88
"1029",-16.85
"1030",-19.27
"1031",-23.01
"1032",-25.23
"1033",-23.66
"1034",-17.38
"1035",-6.99
"1036",5.96
"1037",19.58
"1038",32.03
"1039",41.68
"1040",47.42
"1041",49.18
"1042",48.01
"1043",45.81
"1044",44.3
"1045",43.95
"1046",43.51
"1047",40.64
"1048",33.19
"1049",20.64
"1050",4.63
"1051",-11.65
"1052",-24.91
"1053",-33.17
"1054",-36.35
"1055",-35.77
"1056",-33.2
"1057",-29.79
"1058",-25.86
"1059",-21.12
"1060",-15.32
"1061",-8.71
"1062",-2.08
"1063",3.49
"1064",7.07
"1065",8.42
"1066",8.2
"1067",7.83
"1068",8.91
"1069",12.37
"1070",17.86
"1071",23.62
"1072",27.05
"1073",25.79
"1074",18.72
"1075",6.52
"1076",-8.51
"1077",-23.31
"1078",-35.24
"1079",-42.72
"1080",-45.58
"1081",-44.85
"1082",-42.03
"1083",-38.57
"1084",-35.28
"1085",-32.26
"1086",-29.1
"1087",-25.37
"1088",-20.86
"1089",-15.88
"1090",-11.04
"1091",-6.89
"1092",-3.49
"1093",-0.32
"1094",3.35
"1095",8
"1096",13.29
"1097",18.01
"1098",20.42
"1099",19.06
"1100",13.54
"1101",4.79
"1102",-5.13
"1103",-13.72
"1104",-18.91
"1105",-19.66
"1106",-16.2
"1107",-9.75
"1108",-1.92
"1109",5.93
"1110",13.07
"1111",19.48
"1112",25.64
"1113",32.12
"1114",39.23
"1115",46.75
"1116",53.9
"1117",59.53
"1118",62.41
"1119",61.57
"1120",56.47
"1121",47.14
"1122",34.06
"1123",18.04
"1124",0.3
"1125",-17.49
"1126",-33.34
"1127",-45.13
"1128",-51.13
"1129",-50.58
"1130",-43.97
"1131",-33.07
"1132",-20.32
"1133",-8
"1134",2.42
"1135",10.56
"1136",16.95
"1137",22.35
"1138",27.29
"1139",31.78
"1140",35.5
"1141",38.14
"1142",39.77
"1143",40.81
"1144",41.77
"1145",42.73
"1146",43.02
"1147",41.71
"1148",38.17
"1149",32.69
"1150",26.33
"1151",20.28
"1152",15.08
"1153",10.22
"1154",4.69
"1155",-2.25
"1156",-10.31
"1157",-18.15
"1158",-24.3
"1159",-28.15
"1160",-30.5
"1161",-33.21
"1162",-38.16
"1163",-45.95
"1164",-55.6
"1165",-64.89
"1166",-71.45
"1167",-73.66
"1168",-70.98
"1169",-63.86
"1170",-53.38
"1171",-40.95
"1172",-28.01
"1173",-16.01
"1174",-6.07
"1175",1.34
"1176",6.73
"1177",11.42
"1178",16.98
"1179",24.49
"1180",34.17
"1181",45.49
"1182",57.59
"1183",69.6
"1184",80.53
"1185",88.98
"1186",93.02
"1187",90.72
"1188",81.1
"1189",65.06
"1190",45.44
"1191",26.21
"1192",10.85
"1193",1.15
"1194",-3.32
"1195",-4.58
"1196",-4.98
"1197",-6.22
"1198",-8.92
"1199",-12.99
"1200",-18.06
"1201",-23.96
"1202",-30.51
"1203",-37.16
"1204",-42.84
"1205",-45.9
"1206",-44.66
"1207",-38.01
"1208",-25.89
"1209",-9.4
"1210",9.52
"1211",28.6
"1212",45.83
"1213",59.62
"1214",68.97
"1215",73.46
"1216",73.42
"1217",69.87
"1218",64.27
"1219",57.97
"1220",51.73
"1221",45.64
"1222",39.25
"1223",32.12
"1224",24.08
"1225",15.24
"1226",5.71
"1227",-4.65
"1228",-16.03
"1229",-28.43
"1230",-41.03
"1231",-52.37
"1232",-60.87
"1233",-65.8
"1234",-67.8
"1235",-68.61
"1236",-70.13
"1237",-73.1
"1238",-76.76
"1239",-79.05
"1240",-77.67
"1241",-71.14
"1242",-59.31
"1243",-43.31
"1244",-24.96
"1245",-6.2
"1246",11.23
"1247",25.73
"1248",36.14
"1249",42.14
"1250",44.65
"1251",45.78
"1252",47.86
"1253",52.02
"1254",57.28
"1255",60.69
"1256",58.67
"1257",49.15
"1258",32.92
"1259",13.52
"1260",-4.34
"1261",-17.02
"1262",-23.45
"1263",-25.17
"1264",-24.98
"1265",-25.35
"1266",-27.21
"1267",-30.1
"1268",-33.13
"1269",-35.84
"1270",-38.62
"1271",-42.11
"1272",-46.44
"1273",-50.73
"1274",-53.11
"1275",-51.37
"1276",-43.93
"1277",-30.58
"1278",-12.65
"1279",7.23
"1280",25.9
"1281",40.34
"1282",48.52
"1283",50.02
"1284",46.23
"1285",39.76
"1286",33.61
"1287",30.02
"1288",29.73
"1289",32.1
"1290",35.66
"1291",39
"1292",41.36
"1293",42.58
"1294",42.81
"1295",42.21
"1296",40.87
"1297",38.83
"1298",36.22
"1299",33.15
"1300",29.53
"1301",24.9
"1302",18.49
"1303",9.54
"1304",-2.25
"1305",-16.38
"1306",-31.73
"1307",-46.76
"1308",-59.92
"1309",-69.84
"1310",-75.44
"1311",-75.93
"1312",-70.87
"1313",-60.33
"1314",-45
"1315",-26.35
"1316",-6.2
"1317",13.77
"1318",32.47
"1319",49.45
"1320",64.21
"1321",75.69
"1322",82.17
"1323",81.82
"1324",73.7
"1325",58.6
"1326",39.02
"1327",18.38
"1328",-0.29
"1329",-15.3
"1330",-26.53
"1331",-34.76
"1332",-40.74
"1333",-44.74
"1334",-46.49
"1335",-45.86
"1336",-43.51
"1337",-40.97
"1338",-40.11
"1339",-42.24
"1340",-47.5
"1341",-54.42
"1342",-60.53
"1343",-62.91
"1344",-59.18
"1345",-48.27
"1346",-30.74
"1347",-8.73
"1348",14.48
"1349",35.25
"1350",50.43
"1351",58.26
"1352",58.78
"1353",53.59
"1354",44.99
"1355",34.92
"1356",24.02
"1357",11.75
"1358",-2.68
"1359",-19.2
"1360",-36.19
"1361",-50.93
"1362",-60.98
"1363",-65.51
"1364",-65.73
"1365",-64.25
"1366",-63.6
"1367",-64.8
"1368",-66.97
"1369",-68.05
"1370",-66.26
"1371",-61.17
"1372",-54.12
"1373",-47.28
"1374",-42.49
"1375",-40.11
"1376",-38.71
"1377",-35.61
"1378",-28.08
"1379",-14.65
"1380",4.32
"1381",26.79
"1382",49.98
"1383",71.43
"1384",89.52
"1385",103.55
"1386",113.28
"1387",118.65
"1388",119.75
"1389",117.03
"1390",111.45
"1391",104.2
"1392",96.17
"1393",87.52
"1394",77.73
"1395",66.19
"1396",52.87
"1397",38.7
"1398",25.17
"1399",13.6
"1400",4.4
"1401",-2.99
"1402",-9.75
"1403",-16.99
"1404",-25.19
"1405",-34.15
"1406",-43.17
"1407",-51.4
"1408",-58.05
"1409",-62.53
"1410",-64.5
"1411",-63.88
"1412",-60.69
"1413",-54.99
"1414",-46.7
"1415",-35.63
"1416",-21.8
"1417",-5.78
"1418",10.99
"1419",26.18
"1420",37.36
"1421",43.08
"1422",43.7
"1423",41.34
"1424",38.89
"1425",38.52
"1426",40.72
"1427",44.31
"1428",47.29
"1429",47.99
"1430",45.7
"1431",40.65
"1432",33.46
"1433",24.63
"1434",14.48
"1435",3.48
"1436",-7.41
"1437",-16.87
"1438",-23.76
"1439",-27.86
"1440",-30.28
"1441",-32.93
"1442",-37.67
"1443",-45.35
"1444",-55.37
"1445",-65.89
"1446",-74.48
"1447",-78.93
"1448",-77.86
"1449",-70.96
"1450",-58.82
"1451",-42.72
"1452",-24.57
"1453",-6.67
"1454",8.66
"1455",20.04
"1456",27.54
"1457",32.62
"1458",37.19
"1459",42.28
"1460",47.18
"1461",49.71
"1462",47.44
"1463",39.29
"1464",26.5
"1465",12.16
"1466",-0.2
"1467",-8.33
"1468",-12.03
"1469",-12.81
"1470",-12.74
"1471",-13.26
"1472",-14.63
"1473",-16.21
"1474",-17.58
"1475",-18.83
"1476",-20.7
"1477",-23.9
"1478",-28.43
"1479",-33.32
"1480",-36.74
"1481",-36.53
"1482",-30.93
"1483",-19.3
"1484",-2.45
"1485",17.2
"1486",36.04
"1487",50.19
"1488",56.77
"1489",55
"1490",46.5
"1491",34.66
"1492",23.05
"1493",14.02
"1494",7.92
"1495",3.48
"1496",-1
"1497",-6.69
"1498",-13.78
"1499",-21.94
"1500",-30.8
"1501",-40.15
"1502",-49.53
"1503",-58.1
"1504",-64.66
"1505",-68
"1506",-67.79
"1507",-64.81
"1508",-60.85
"1509",-57.81
"1510",-56.75
"1511",-57.28
"1512",-57.91
"1513",-56.72
"1514",-52.04
"1515",-42.86
"1516",-28.88
"1517",-10.43
"1518",11.49
"1519",35.11
"1520",57.79
"1521",76.41
"1522",88.58
"1523",93.9
"1524",94.43
"1525",93.8
"1526",95.05
"1527",98.69
"1528",101.97
"1529",100.24
"1530",89.6
"1531",69.35
"1532",42.78
"1533",15.52
"1534",-7.08
"1535",-22.48
"1536",-31.6
"1537",-37.47
"1538",-43
"1539",-49.24
"1540",-55.15
"1541",-58.77
"1542",-58.89
"1543",-55.83
"1544",-51.27
"1545",-47.13
"1546",-44.27
"1547",-41.81
"1548",-37.42
"1549",-28.39
"1550",-13.12
"1551",7.79
"1552",31.35
"1553",52.89
"1554",67.66
"1555",72.69
"1556",67.86
"1557",55.8
"1558",40.37
"1559",24.74
"1560",9.93
"1561",-4.98
"1562",-21.45
"1563",-39.77
"1564",-57.97
"1565",-72.68
"1566",-80.76
"1567",-81.17
"1568",-75.49
"1569",-66.94
"1570",-58.67
"1571",-52.3
"1572",-47.76
"1573",-44.02
"1574",-40.45
"1575",-37.3
"1576",-35.48
"1577",-35.64
"1578",-37.36
"1579",-39.02
"1580",-38.52
"1581",-34.05
"1582",-24.83
"1583",-11.35
"1584",5.04
"1585",22.6
"1586",39.47
"1587",53.91
"1588",64.31
"1589",69.8
"1590",70.89
"1591",69.89
"1592",70.06
"1593",73.85
"1594",81.21
"1595",88.87
"1596",91.83
"1597",85.93
"1598",70.43
"1599",48.7
"1600",26.55
"1601",9.11
"1602",-1.69
"1603",-7.71
"1604",-12.93
"1605",-20.57
"1606",-31.09
"1607",-41.98
"1608",-49.71
"1609",-52.01
"1610",-49.27
"1611",-44.18
"1612",-40.25
"1613",-39.75
"1614",-42.37
"1615",-45.39
"1616",-44.76
"1617",-36.99
"1618",-20.81
"1619",2.32
"1620",28.44
"1621",52.36
"1622",69.24
"1623",76.12
"1624",72.77
"1625",61.64
"1626",46.82
"1627",32.52
"1628",21.64
"1629",15.01
"1630",11.39
"1631",8.22
"1632",2.75
"1633",-6.77
"1634",-20.57
"1635",-37.24
"1636",-54.35
"1637",-69.36
"1638",-80.57
"1639",-87.6
"1640",-91.3
"1641",-93.1
"1642",-94.12
"1643",-94.49
"1644",-93.35
"1645",-89.3
"1646",-81.22
"1647",-68.85
"1648",-52.65
"1649",-33.3
"1650",-11.32
"1651",13.05
"1652",39.43
"1653",66.66
"1654",92.2
"1655",112.65
"1656",125.06
"1657",128.71
"1658",125.71
"1659",119.92
"1660",114.71
"1661",110.96
"1662",106.64
"1663",98.39
"1664",84.15
"1665",64.86
"1666",44.24
"1667",26.52
"1668",13.79
"1669",4.76
"1670",-4.29
"1671",-16.97
"1672",-34.39
"1673",-54.31
"1674",-72.47
"1675",-84.93
"1676",-90.09
"1677",-89.07
"1678",-84.79
"1679",-80.31
"1680",-77.35
"1681",-75.45
"1682",-72.16
"1683",-64.27
"1684",-49.33
"1685",-26.94
"1686",0.61
"1687",28.87
"1688",52.39
"1689",66.46
"1690",68.76
"1691",59.99
"1692",43.44
"1693",23.79
"1694",5.71
"1695",-7.28
"1696",-13.23
"1697",-11.92
"1698",-4.75
"1699",5.46
"1700",14.91
"1701",19.66
"1702",16.95
"1703",6.23
"1704",-10.51
"1705",-29.42
"1706",-46.29
"1707",-58.02
"1708",-63.54
"1709",-63.79
"1710",-60.8
"1711",-56.59
"1712",-52.52
"1713",-49.04
"1714",-45.7
"1715",-41.41
"1716",-34.58
"1717",-23.54
"1718",-7.13
"1719",14.79
"1720",40.8
"1721",67.98
"1722",92.54
"1723",111.11
"1724",122.04
"1725",125.97
"1726",125.22
"1727",122.36
"1728",118.78
"1729",114.07
"1730",106.65
"1731",95.07
"1732",79.32
"1733",61.14
"1734",43.15
"1735",27.6
"1736",15.22
"1737",5.09
"1738",-4.57
"1739",-15.11
"1740",-26.56
"1741",-37.73
"1742",-46.89
"1743",-52.74
"1744",-55.01
"1745",-54.44
"1746",-52.42
"1747",-50.26
"1748",-48.35
"1749",-45.64
"1750",-40
"1751",-29.1
"1752",-11.88
"1753",10.38
"1754",33.94
"1755",53.66
"1756",65.05
"1757",65.99
"1758",57.53
"1759",43.13
"1760",26.98
"1761",12.23
"1762",0.11
"1763",-9.89
"1764",-18.97
"1765",-28
"1766",-37.17
"1767",-46.22
"1768",-54.79
"1769",-62.64
"1770",-69.52
"1771",-74.9
"1772",-78.03
"1773",-78.27
"1774",-75.45
"1775",-70.21
"1776",-63.74
"1777",-57.15
"1778",-51.09
"1779",-45.46
"1780",-39.55
"1781",-32.4
"1782",-23.45
"1783",-12.56
"1784",-0.06
"1785",13.46
"1786",27.29
"1787",40.52
"1788",52.29
"1789",62.12
"1790",70.32
"1791",77.88
"1792",85.58
"1793",92.96
"1794",97.75
"1795",96.48
"1796",86.2
"1797",66.43
"1798",40.14
"1799",12.87
"1800",-9.47
"1801",-23.29
"1802",-28.72
"1803",-29.12
"1804",-29.03
"1805",-31.72
"1806",-37.9
"1807",-45.9
"1808",-53.15
"1809",-57.77
"1810",-59.24
"1811",-58.35
"1812",-56.27
"1813",-53.55
"1814",-49.59
"1815",-42.81
"1816",-31.43
"1817",-14.58
"1818",7.05
"1819",31.04
"1820",53.75
"1821",71.26
"1822",80.58
"1823",80.5
"1824",71.99
"1825",57.76
"1826",41.28
"1827",25.48
"1828",11.77
"1829",-0.07
"1830",-11.17
"1831",-22.42
"1832",-33.7
"1833",-43.83
"1834",-51.45
"1835",-56
"1836",-58.28
"1837",-60.1
"1838",-63.28
"1839",-68.52
"1840",-74.98
"1841",-80.74
"1842",-83.93
"1843",-83.75
"1844",-80.7
"1845",-75.98
"1846",-70.51
"1847",-64.17
"1848",-55.94
"1849",-44.49
"1850",-28.93
"1851",-9.47
"1852",12.67
"1853",35.63
"1854",57.44
"1855",76.43
"1856",91.53
"1857",102.67
"1858",110.9
"1859",118.09
"1860",125.74
"1861",133.75
"1862",139.68
"1863",139.53
"1864",129.51
"1865",108.51
"1866",79.11
"1867",46.95
"1868",18.27
"1869",-2.87
"1870",-16.07
"1871",-24.15
"1872",-30.93
"1873",-38.96
"1874",-48.21
"1875",-56.72
"1876",-62.23
"1877",-63.7
"1878",-61.84
"1879",-58.44
"1880",-55.17
"1881",-52.42
"1882",-49.01
"1883",-42.77
"1884",-31.81
"1885",-15.72
"1886",3.99
"1887",24.23
"1888",41.21
"1889",51.72
"1890",54.25
"1891",49.44
"1892",39.96
"1893",29.36
"1894",20.69
"1895",15.43
"1896",13.23
"1897",12.5
"1898",11.41
"1899",8.76
"1900",4.09
"1901",-2.49
"1902",-10.76
"1903",-20.57
"1904",-31.59
"1905",-43
"1906",-53.53
"1907",-61.83
"1908",-67.18
"1909",-69.99
"1910",-71.51
"1911",-73.08
"1912",-75.34
"1913",-77.7
"1914",-78.6
"1915",-76.14
"1916",-68.73
"1917",-55.51
"1918",-36.54
"1919",-12.69
"1920",14.4
"1921",42.23
"1922",67.58
"1923",87.09
"1924",98.58
"1925",102.29
"1926",101.16
"1927",99.43
"1928",100.45
"1929",104.51
"1930",108.48
"1931",107.45
"1932",97.73
"1933",79.01
"1934",54.74
"1935",30.12
"1936",9.16
"1937",-7.09
"1938",-20.47
"1939",-33.77
"1940",-48.48
"1941",-63.72
"1942",-76.85
"1943",-85.13
"1944",-87.23
"1945",-83.71
"1946",-76.34
"1947",-67.02
"1948",-56.85
"1949",-45.69
"1950",-32.48
"1951",-16.04
"1952",3.96
"1953",26.35
"1954",48.24
"1955",65.73
"1956",75.02
"1957",73.81
"1958",62.37
"1959",43.49
"1960",21.52
"1961",0.6
"1962",-16.65
"1963",-29.81
"1964",-39.83
"1965",-47.99
"1966",-54.67
"1967",-59.27
"1968",-60.81
"1969",-58.79
"1970",-53.79
"1971",-47.37
"1972",-41.31
"1973",-36.94
"1974",-34.66
"1975",-34.03
"1976",-34.28
"1977",-34.72
"1978",-34.86
"1979",-34.23
"1980",-32.21
"1981",-28.07
"1982",-21.16
"1983",-11.15
"1984",1.81
"1985",17.16
"1986",33.88
"1987",50.67
"1988",65.95
"1989",78.01
"1990",85.26
"1991",86.96
"1992",83.8
"1993",78.1
"1994",73.05
"1995",71.13
"1996",72.58
"1997",74.88
"1998",73.9
"1999",66.1
"2000",50.58
"2001",29.86
"2002",8.64
"2003",-8.59
"2004",-19.69
"2005",-25.64
"2006",-29.4
"2007",-33.83
"2008",-39.93
"2009",-46.61
"2010",-51.82
"2011",-54.21
"2012",-53.99
"2013",-52.72
"2014",-52
"2015",-52.43
"2016",-52.99
"2017",-51.5
"2018",-45.75
"2019",-34.49
"2020",-18.06
"2021",1.69
"2022",21.79
"2023",38.9
"2024",49.97
"2025",53.13
"2026",48.37
"2027",37.67
"2028",24.46
"2029",12.34
"2030",3.73
"2031",-0.98
"2032",-3.21
"2033",-5.12
"2034",-8.3
"2035",-13.09
"2036",-18.75
"2037",-24.24
"2038",-28.97
"2039",-33.06
"2040",-36.98
"2041",-41.03
"2042",-44.97
"2043",-48.22
"2044",-50.22
"2045",-50.93
"2046",-50.69
"2047",-49.89
"2048",-48.32
"2049",-44.99
"2050",-38.4
"2051",-27.26
"2052",-11.12
"2053",9.22
"2054",31.85
"2055",54.18
"2056",73.43
"2057",87.18
"2058",94.05
"2059",94.35
"2060",90.35
"2061",85.49
"2062",82.83
"2063",83.22
"2064",84.52
"2065",82.49
"2066",73.04
"2067",54.9
"2068",30.62
"2069",5.6
"2070",-14.76
"2071",-27.74
"2072",-34.42
"2073",-38.52
"2074",-43.85
"2075",-52.19
"2076",-62.44
"2077",-71.71
"2078",-77.19
"2079",-77.64
"2080",-73.75
"2081",-67.37
"2082",-60.16
"2083",-52.65
"2084",-44.02
"2085",-32.66
"2086",-17.2
"2087",2.39
"2088",24.53
"2089",46.25
"2090",64.07
"2091",75.14
"2092",78.2
"2093",73.87
"2094",64.3
"2095",52.13
"2096",39.58
"2097",27.96
"2098",17.82
"2099",9.5
"2100",3.36
"2101",-0.26
"2102",-1.67
"2103",-2.14
"2104",-3.58
"2105",-7.88
"2106",-15.76
"2107",-26.51
"2108",-38.38
"2109",-49.56
"2110",-59.19
"2111",-67.43
"2112",-74.9
"2113",-81.61
"2114",-86.36
"2115",-87.03
"2116",-81.68
"2117",-69.77
"2118",-52.53
"2119",-32.49
"2120",-12.26
"2121",6.72
"2122",24.38
"2123",41.28
"2124",57.51
"2125",72.13
"2126",83.6
"2127",90.83
"2128",93.93
"2129",93.92
"2130",91.73
"2131",87.13
"2132",78.63
"2133",64.73
"2134",45.42
"2135",23.11
"2136",1.89
"2137",-14.37
"2138",-24.03
"2139",-28.41
"2140",-30.7
"2141",-34.08
"2142",-39.94
"2143",-47.4
"2144",-54.19
"2145",-58.12
"2146",-58.15
"2147",-54.57
"2148",-48.36
"2149",-40.34
"2150",-30.6
"2151",-18.56
"2152",-3.6
"2153",14.28
"2154",33.74
"2155",52.22
"2156",66.53
"2157",73.82
"2158",72.76
"2159",64.01
"2160",50.17
"2161",34.76
"2162",20.92
"2163",10.28
"2164",2.68
"2165",-3.32
"2166",-9.39
"2167",-16.51
"2168",-24.74
"2169",-33.43
"2170",-41.89
"2171",-49.75
"2172",-56.99
"2173",-63.53
"2174",-69.07
"2175",-73.05
"2176",-74.95
"2177",-74.64
"2178",-72.34
"2179",-68.58
"2180",-63.7
"2181",-57.52
"2182",-49.32
"2183",-38.07
"2184",-23.05
"2185",-4.23
"2186",17.51
"2187",40.64
"2188",63.21
"2189",83.16
"2190",98.8
"2191",109.11
"2192",114.33
"2193",115.86
"2194",115.96
"2195",116.61
"2196",118.55
"2197",120.65
"2198",120.66
"2199",116.63
"2200",108.26
"2201",97.38
"2202",87.03
"2203",79.74
"2204",76.07
"2205",74.27
"2206",71.01
"2207",63.75
"2208",52.19
"2209",38.43
"2210",25.94
"2211",17.83
"2212",15.56
"2213",18.71
"2214",25.54
"2215",33.29
"2216",39.96
"2217",44.92
"2218",48.83
"2219",53.36
"2220",60.46
"2221",71.48
"2222",86.63
"2223",104.22
"2224",119.13
"2225",124.94
"2226",115.79
"2227",88.5
"2228",44
"2229",-12.95
"2230",-75.74
"2231",-137.91
"2232",-194.55
"2233",-244.3
"2234",-286.78
"2235",-321.49
"2236",-347.49
"2237",-364.49
"2238",-374.36
"2239",-382.23
"2240",-394.64
"2241",-405.21
"2242",-406.37
"2243",-389.69
"2244",-350.57
"2245",-290.98
"2246",-218.29
"2247",-141.66
"2248",-69.38
"2249",-6.14
"2250",47.7
"2251",92.99
"2252",131.5
"2253",164.52
"2254",192.47
"2255",215.28
"2256",234.23
"2257",249.61
"2258",261.29
"2259",268.63
"2260",269.04
"2261",260.03
"2262",241.01
"2263",214.54
"2264",184.45
"2265",159.12
"2266",144.1
"2267",139.73
"2268",141.98
"2269",144.69
"2270",143.49
"2271",137.54
"2272",128.38
"2273",116.59
"2274",101.01
"2275",78.66
"2276",48.02
"2277",11.43
"2278",-24.92
"2279",-53.65
"2280",-69.13
"2281",-70.37
"2282",-60.86
"2283",-46.4
"2284",-33.02
"2285",-24.27
"2286",-20.87
"2287",-19.03
"2288",-16.47
"2289",-12.28
"2290",-7.03
"2291",-1.96
"2292",2.16
"2293",5.04
"2294",7.12
"2295",9.06
"2296",11.04
"2297",12.08
"2298",10.94
"2299",6.72
"2300",-0.38
"2301",-8.68
"2302",-15.78
"2303",-19.49
"2304",-18.64
"2305",-13.48
"2306",-5.87
"2307",1.8
"2308",7.06
"2309",7.68
"2310",2.09
"2311",-10.23
"2312",-28.33
"2313",-49.52
"2314",-70.1
"2315",-86.72
"2316",-97.52
"2317",-102.87
"2318",-104.98
"2319",-106.54
"2320",-108.93
"2321",-111.06
"2322",-109.37
"2323",-99.5
"2324",-78.63
"2325",-47.15
"2326",-9.28
"2327",28.92
"2328",61.69
"2329",85.44
"2330",99.16
"2331",103.65
"2332",100.26
"2333",90.11
"2334",73.96
"2335",51.87
"2336",23.98
"2337",-9.59
"2338",-49.14
"2339",-95.34
"2340",-148.98
"2341",-209.62
"2342",-274.57
"2343",-338.76
"2344",-395.27
"2345",-435.63
"2346",-451.6
"2347",-438.01
"2348",-395.3
"2349",-330.5
"2350",-254.88
"2351",-179
"2352",-108.85
"2353",-45.18
"2354",15.49
"2355",76.78
"2356",139.07
"2357",198.19
"2358",249.72
"2359",286.22
"2360",304.05
"2361",308.34
"2362",305.36
"2363",300.18
"2364",295.19
"2365",290.48
"2366",284.55
"2367",275.32
"2368",260.83
"2369",240.79
"2370",216.39
"2371",189.69
"2372",162.78
"2373",137.07
"2374",112.25
"2375",86.03
"2376",55.38
"2377",17.98
"2378",-25.55
"2379",-71.53
"2380",-114.84
"2381",-150.9
"2382",-177.15
"2383",-193.96
"2384",-203.62
"2385",-208.25
"2386",-207.7
"2387",-199.37
"2388",-180.15
"2389",-150.41
"2390",-115.57
"2391",-84.33
"2392",-64.12
"2393",-56.36
"2394",-55.24
"2395",-50.88
"2396",-35.98
"2397",-11.22
"2398",14.06
"2399",27.53
"2400",22.07
"2401",0.64
"2402",-25.14
"2403",-42.06
"2404",-43.1
"2405",-31
"2406",-15.3
"2407",-5.92
"2408",-6.77
"2409",-14.31
"2410",-20.98
"2411",-20.61
"2412",-12.22
"2413",-0.14
"2414",9.13
"2415",11.27
"2416",6.6
"2417",0.14
"2418",-0.44
"2419",12.11
"2420",41.91
"2421",88.18
"2422",144.76
"2423",201.04
"2424",244.7
"2425",265.75
"2426",260.69
"2427",234.51
"2428",199.09
"2429",168.65
"2430",153.63
"2431",156.28
"2432",169.89
"2433",181.93
"2434",179.78
"2435",155.84
"2436",110.16
"2437",49.55
"2438",-15.71
"2439",-75.43
"2440",-122.38
"2441",-153.29
"2442",-168.93
"2443",-172.93
"2444",-170.35
"2445",-165.94
"2446",-162.9
"2447",-162.46
"2448",-164.01
"2449",-165.78
"2450",-165.37
"2451",-160
"2452",-146.23
"2453",-120.15
"2454",-78.95
"2455",-23.19
"2456",41.26
"2457",103.76
"2458",152.33
"2459",178.94
"2460",183.44
"2461",173.9
"2462",162.27
"2463",157.8
"2464",161.9
"2465",167.62
"2466",164.36
"2467",144.69
"2468",109.25
"2469",66.51
"2470",27.68
"2471",0.22
"2472",-15.67
"2473",-25.91
"2474",-38.05
"2475",-56.35
"2476",-80.06
"2477",-105.37
"2478",-129.01
"2479",-151.12
"2480",-174.92
"2481",-203.07
"2482",-233.5
"2483",-257.88
"2484",-263.95
"2485",-240.59
"2486",-183.41
"2487",-98.06
"2488",0.27
"2489",91.19
"2490",156.13
"2491",184.71
"2492",178
"2493",147.35
"2494",109.37
"2495",80.03
"2496",69.7
"2497",80.82
"2498",108.56
"2499",143.32
"2500",173.67
"2501",189.18
"2502",183.07
"2503",153.73
"2504",105.37
"2505",47.05
"2506",-10.23
"2507",-57.58
"2508",-91.19
"2509",-112.98
"2510",-128.72
"2511",-144.42
"2512",-163.55
"2513",-185.91
"2514",-208.54
"2515",-227.25
"2516",-238.24
"2517",-238.77
"2518",-226.9
"2519",-201.42
"2520",-161.78
"2521",-109.64
"2522",-49.83
"2523",9.48
"2524",58.59
"2525",89.83
"2526",101.05
"2527",97.33
"2528",88.98
"2529",86.86
"2530",96.8
"2531",116.71
"2532",137.93
"2533",150.11
"2534",146.93
"2535",129.11
"2536",102.86
"2537",75.63
"2538",51.82
"2539",30.83
"2540",8.76
"2541",-18.05
"2542",-50.26
"2543",-85.2
"2544",-118.88
"2545",-148.53
"2546",-173.93
"2547",-196.37
"2548",-216.23
"2549",-230.59
"2550",-233.3
"2551",-217.47
"2552",-178.89
"2553",-118.73
"2554",-43.74
"2555",35.43
"2556",106.78
"2557",160.25
"2558",190.18
"2559",196.8
"2560",186.15
"2561",168.21
"2562",153.61
"2563",149.85
"2564",158.29
"2565",173.71
"2566",186.48
"2567",186.45
"2568",166.79
"2569",126.05
"2570",68.18
"2571",0.64
"2572",-67.99
"2573",-130.15
"2574",-180.24
"2575",-215.18
"2576",-234.91
"2577",-242.2
"2578",-241.59
"2579",-237.77
"2580",-234.52
"2581",-233.09
"2582",-232.12
"2583",-227.81
"2584",-215.27
"2585",-190.27
"2586",-150.43
"2587",-96.09
"2588",-31.21
"2589",36.99
"2590",99.55
"2591",148.15
"2592",177.82
"2593",188.64
"2594",185.83
"2595",177.99
"2596",174.15
"2597",180.61
"2598",198.98
"2599",225.97
"2600",254.6
"2601",276.1
"2602",282.27
"2603",267.93
"2604",232.62
"2605",180.87
"2606",121.11
"2607",62.98
"2608",13.82
"2609",-23.79
"2610",-52.3
"2611",-76.8
"2612",-101.7
"2613",-127.46
"2614",-149.89
"2615",-161.41
"2616",-154.12
"2617",-123.04
"2618",-68.38
"2619",4.26
"2620",84.57
"2621",159.46
"2622",215.78
"2623",243.7
"2624",240.05
"2625",210.24
"2626",167.44
"2627",128.46
"2628",107.45
"2629",110.24
"2630",131.99
"2631",159.46
"2632",177.07
"2633",173.47
"2634",145.55
"2635",98.43
"2636",42.02
"2637",-13.95
"2638",-63.26
"2639",-103.85
"2640",-136.37
"2641",-161.87
"2642",-180.4
"2643",-191.36
"2644",-195.21
"2645",-194.89
"2646",-195.94
"2647",-204.14
"2648",-222.05
"2649",-246.74
"2650",-269.75
"2651",-279.89
"2652",-267.85
"2653",-229.83
"2654",-169.28
"2655",-95.73
"2656",-22.08
"2657",39.31
"2658",79.59
"2659",95.87
"2660",91.71
"2661",76.05
"2662",60.23
"2663",53.88
"2664",61.09
"2665",78.83
"2666",98.8
"2667",111.7
"2668",112.05
"2669",100.41
"2670",81.88
"2671",62.33
"2672",44.66
"2673",27.15
"2674",5.43
"2675",-24.09
"2676",-61.57
"2677",-103.07
"2678",-142.35
"2679",-173.96
"2680",-195.15
"2681",-206.21
"2682",-208.92
"2683",-204.4
"2684",-191.89
"2685",-169.38
"2686",-135.25
"2687",-89.84
"2688",-36.49
"2689",19.36
"2690",71.56
"2691",115.38
"2692",149.04
"2693",174.15
"2694",194.8
"2695",215.4
"2696",238.31
"2697",262.01
"2698",281.63
"2699",290.63
"2700",283.73
"2701",259.04
"2702",218.45
"2703",166.54
"2704",108.66
"2705",49.05
"2706",-9.59
"2707",-65.28
"2708",-115.98
"2709",-159.19
"2710",-192.78
"2711",-216.59
"2712",-233.35
"2713",-248.05
"2714",-265.75
"2715",-288.44
"2716",-312.8
"2717",-330.73
"2718",-331.99
"2719",-308.76
"2720",-259.45
"2721",-189.97
"2722",-111.25
"2723",-35.09
"2724",30.19
"2725",81.28
"2726",118.83
"2727",145.17
"2728",162.65
"2729",173.56
"2730",180.89
"2731",188.1
"2732",197.31
"2733",207.03
"2734",211.65
"2735",204
"2736",180.22
"2737",143.3
"2738",102.79
"2739",70.06
"2740",52.2
"2741",48.09
"2742",49.47
"2743",46.12
"2744",31.57
"2745",5.84
"2746",-26.43
"2747",-60.26
"2748",-93.39
"2749",-125.88
"2750",-157.14
"2751",-182.79
"2752",-194.4
"2753",-182.98
"2754",-143.81
"2755",-79.66
"2756",-0.28
"2757",81.08
"2758",151.92
"2759",203.88
"2760",233.96
"2761",244.16
"2762",239.74
"2763",227.05
"2764",211.33
"2765",195
"2766",176.95
"2767",153.42
"2768",120.17
"2769",75
"2770",19.48
"2771",-41.13
"2772",-99.3
"2773",-147.34
"2774",-179.33
"2775",-192.36
"2776",-187.39
"2777",-169.11
"2778",-145.17
"2779",-124.4
"2780",-114.57
"2781",-120.18
"2782",-141.47
"2783",-174.82
"2784",-214.12
"2785",-251.61
"2786",-279.21
"2787",-289.46
"2788",-276.74
"2789",-238.86
"2790",-178.3
"2791",-102.84
"2792",-24.57
"2793",42.75
"2794",87.58
"2795",104.32
"2796",95.19
"2797",69.35
"2798",39.51
"2799",17.19
"2800",9.19
"2801",16.4
"2802",35.64
"2803",62.66
"2804",94.63
"2805",130.1
"2806",167.22
"2807",201.74
"2808",226.8
"2809",235.17
"2810",222.54
"2811",189.88
"2812",143.31
"2813",91.44
"2814",41.78
"2815",-1.74
"2816",-38.99
"2817",-71.75
"2818",-100.68
"2819",-123.49
"2820",-135.09
"2821",-129.89
"2822",-104.39
"2823",-59.29
"2824",0.17
"2825",65.28
"2826",125.83
"2827",172.82
"2828",200.84
"2829",209.11
"2830",200.7
"2831",180.24
"2832",151.31
"2833",115.06
"2834",71.1
"2835",19.69
"2836",-35.67
"2837",-88.01
"2838",-128.84
"2839",-152.05
"2840",-156.67
"2841",-147.61
"2842",-133.12
"2843",-121.47
"2844",-118.14
"2845",-125
"2846",-141.57
"2847",-166.46
"2848",-197.62
"2849",-232.07
"2850",-265.23
"2851",-290.95
"2852",-302.88
"2853",-296.36
"2854",-269.78
"2855",-225.18
"2856",-167.77
"2857",-104.09
"2858",-40.36
"2859",18.73
"2860",70.34
"2861",113.18
"2862",146.92
"2863",171.86
"2864",188.87
"2865",199.61
"2866",206.73
"2867",213.16
"2868",221.06
"2869",230.68
"2870",240.14
"2871",246.17
"2872",245.84
"2873",237.68
"2874",222.25
"2875",201.18
"2876",175.82
"2877",146.87
"2878",114.61
"2879",79.91
"2880",44.95
"2881",12.81
"2882",-14.04
"2883",-35.35
"2884",-53.38
"2885",-71.64
"2886",-92.05
"2887",-112.57
"2888",-127.42
"2889",-128.96
"2890",-111.2
"2891",-72.59
"2892",-17.27
"2893",45.96
"2894",106.33
"2895",154.47
"2896",185.14
"2897",197.95
"2898",196.38
"2899",185.66
"2900",170.91
"2901",156.23
"2902",144.33
"2903",136.54
"2904",132.47
"2905",129.54
"2906",123.15
"2907",107.97
"2908",79.68
"2909",37.52
"2910",-14.79
"2911",-69.87
"2912",-119.45
"2913",-157.55
"2914",-182.64
"2915",-197.53
"2916",-207.49
"2917",-218.03
"2918",-233.09
"2919",-253.39
"2920",-276.15
"2921",-295.43
"2922",-303.49
"2923",-293.49
"2924",-261.86
"2925",-210.3
"2926",-146.04
"2927",-79.95
"2928",-23.05
"2929",17
"2930",38.46
"2931",45.68
"2932",46.74
"2933",49.98
"2934",59.99
"2935",75.47
"2936",90.15
"2937",96.6
"2938",90.71
"2939",74.75
"2940",56.54
"2941",44.74
"2942",43.62
"2943",50.13
"2944",55.42
"2945",50.28
"2946",30.54
"2947",-0.97
"2948",-36.97
"2949",-70.38
"2950",-98.47
"2951",-122.93
"2952",-146.54
"2953",-168.57
"2954",-183.27
"2955",-181.9
"2956",-157.62
"2957",-109.39
"2958",-43.44
"2959",28.5
"2960",92.98
"2961",138.76
"2962",159.28
"2963",153.04
"2964",122.84
"2965",74.33
"2966",14.74
"2967",-48.44
"2968",-108.87
"2969",-162.29
"2970",-206.93
"2971",-243.64
"2972",-274.75
"2973",-302.78
"2974",-328.5
"2975",-349.65
"2976",-361.09
"2977",-356.53
"2978",-331.06
"2979",-283.91
"2980",-220.71
"2981",-152.76
"2982",-93.72
"2983",-54.39
"2984",-38.72
"2985",-41.9
"2986",-52.55
"2987",-57.42
"2988",-46.5
"2989",-16.25
"2990",31.05
"2991",89.55
"2992",152.32
"2993",212.64
"2994",264.65
"2995",303.08
"2996",323.81
"2997",324.98
"2998",308.59
"2999",281.29
"3000",253.05
"3001",234.11
"3002",231.07
"3003",244.13
"3004",266.46
"3005",286.08
"3006",290.78
"3007",273.69
"3008",237.41
"3009",193.58
"3010",158.05
"3011",144.24
"3012",157.18
"3013",191.64
"3014",234.45
"3015",270.62
"3016",289.19
"3017",286.15
"3018",264.06
"3019",228.95
"3020",186.89
"3021",142.06
"3022",96.91
"3023",53.4
"3024",14.18
"3025",-17.6
"3026",-40.01
"3027",-54.52
"3028",-66.32
"3029",-82.3
"3030",-107.17
"3031",-140.3
"3032",-175.1
"3033",-201.87
"3034",-212.53
"3035",-204.07
"3036",-179.12
"3037",-143.69
"3038",-103.75
"3039",-63.04
"3040",-22.42
"3041",18.31
"3042",58.45
"3043",95.03
"3044",123.04
"3045",137.12
"3046",133.68
"3047",112.96
"3048",79.51
"3049",41.23
"3050",6.41
"3051",-18.99
"3052",-33.1
"3053",-37.47
"3054",-35.37
"3055",-29.96
"3056",-23.94
"3057",-19.81
"3058",-20.29
"3059",-28.55
"3060",-47.04
"3061",-76.32
"3062",-113.82
"3063",-154.07
"3064",-189.91
"3065",-214.25
"3066",-221.83
"3067",-210.25
"3068",-180.78
"3069",-137.96
"3070",-88.7
"3071",-39.73
"3072",4.92
"3073",45.24
"3074",84.2
"3075",124.36
"3076",164.91
"3077",200.61
"3078",223.84
"3079",228.33
"3080",212.37
"3081",180.33
"3082",140.53
"3083",101.49
"3084",68.21
"3085",41.12
"3086",18
"3087",-2.19
"3088",-16.63
"3089",-19.09
"3090",-3.4
"3091",31.51
"3092",78.77
"3093",124.93
"3094",154.87
"3095",158.1
"3096",132.78
"3097",85.75
"3098",28.43
"3099",-28.55
"3100",-78.91
"3101",-121.06
"3102",-155.8
"3103",-183.43
"3104",-202.27
"3105",-209.3
"3106",-201.73
"3107",-178.7
"3108",-142.11
"3109",-96.56
"3110",-48.95
"3111",-7.32
"3112",20.59
"3113",29.41
"3114",17.46
"3115",-12.76
"3116",-55.38
"3117",-103.07
"3118",-149.33
"3119",-189.92
"3120",-222.33
"3121",-244.95
"3122",-255.46
"3123",-250.62
"3124",-227.4
"3125",-185.1
"3126",-127.59
"3127",-63.89
"3128",-6.47
"3129",32.89
"3130",47.86
"3131",40.12
"3132",18.64
"3133",-4.69
"3134",-20.25
"3135",-24.26
"3136",-18.6
"3137",-7.47
"3138",6.56
"3139",24.2
"3140",47.53
"3141",76.88
"3142",107.77
"3143",131.45
"3144",138.82
"3145",124.75
"3146",90.74
"3147",43.94
"3148",-6.3
"3149",-51.81
"3150",-87.61
"3151",-111.92
"3152",-124.44
"3153",-124.58
"3154",-111.05
"3155",-82.91
"3156",-40.86
"3157",11.98
"3158",70.38
"3159",128.13
"3160",179.4
"3161",220.09
"3162",248.9
"3163",266.61
"3164",275.06
"3165",275.12
"3166",265.54
"3167",243.34
"3168",205.78
"3169",152.47
"3170",86.32
"3171",12.88
"3172",-61.21
"3173",-129.19
"3174",-184.73
"3175",-222.4
"3176",-238.43
"3177",-232.57
"3178",-209.79
"3179",-180.25
"3180",-156.46
"3181",-148.75
"3182",-161.07
"3183",-189.43
"3184",-224.05
"3185",-252.95
"3186",-265.98
"3187",-257.57
"3188",-227.41
"3189",-179.77
"3190",-121.67
"3191",-60.87
"3192",-3.78
"3193",45.71
"3194",86.46
"3195",118.79
"3196",143.14
"3197",159.15
"3198",166.55
"3199",166.49
"3200",162.78
"3201",161.03
"3202",165.98
"3203",178.72
"3204",195.99
"3205",212.17
"3206",222.58
"3207",225.89
"3208",224.11
"3209",220.4
"3210",216.54
"3211",211.17
"3212",200.63
"3213",181.48
"3214",152.96
"3215",118.25
"3216",82.92
"3217",52.56
"3218",29.89
"3219",14.06
"3220",1.74
"3221",-10.12
"3222",-21.77
"3223",-29.9
"3224",-29.38
"3225",-16.61
"3226",6.88
"3227",33.59
"3228",53.6
"3229",59.74
"3230",51.62
"3231",35.5
"3232",19.75
"3233",8.49
"3234",-1.7
"3235",-19.79
"3236",-53.75
"3237",-103.77
"3238",-160.15
"3239",-207.06
"3240",-230.31
"3241",-224.4
"3242",-194.97
"3243",-155.35
"3244",-120.38
"3245",-100.32
"3246",-98.26
"3247",-111.11
"3248",-133.33
"3249",-160.2
"3250",-189.62
"3251",-220.99
"3252",-252.36
"3253",-278.34
"3254",-290.33
"3255",-279.71
"3256",-241.85
"3257",-179.23
"3258",-101.26
"3259",-21.25
"3260",48.42
"3261",100.54
"3262",134.22
"3263",153.41
"3264",163.52
"3265",169.54
"3266",174.96
"3267",181.88
"3268",190.84
"3269",200.55
"3270",207.9
"3271",208.8
"3272",200.63
"3273",182.68
"3274",157.73
"3275",130.14
"3276",103.43
"3277",78.44
"3278",53.48
"3279",26.19
"3280",-4.17
"3281",-35.16
"3282",-64.44
"3283",-89.64
"3284",-110.31
"3285",-127.3
"3286",-140.45
"3287",-146.93
"3288",-141.34
"3289",-118.68
"3290",-76.55
"3291",-19.95
"3292",42.48
"3293",100.7
"3294",147.43
"3295",180.8
"3296",204.2
"3297",223.43
"3298",235.96
"3299",248.64
"3300",254.71
"3301",246.49
"3302",218.28
"3303",169.29
"3304",104.17
"3305",30.76
"3306",-42.55
"3307",-109.57
"3308",-165.72
"3309",-210.38
"3310",-242.94
"3311",-263.49
"3312",-273.5
"3313",-276.48
"3314",-278.15
"3315",-284.57
"3316",-299.44
"3317",-320.49
"3318",-341.1
"3319",-349.9
"3320",-335.7
"3321",-292.46
"3322",-222.08
"3323",-134.43
"3324",-43.65
"3325",37.15
"3326",100.71
"3327",145.73
"3328",176.35
"3329",198.24
"3330",215.23
"3331",228.83
"3332",239.03
"3333",245.86
"3334",249.47
"3335",249.35
"3336",242.96
"3337",227.34
"3338",201.62
"3339",169.06
"3340",137.34
"3341",115.12
"3342",107.46
"3343",112.48
"3344",121.76
"3345",124.67
"3346",114.11
"3347",90.19
"3348",59.37
"3349",30.36
"3350",9.02
"3351",-4.38
"3352",-14.49
"3353",-27.53
"3354",-46.94
"3355",-71.36
"3356",-94.46
"3357",-107.6
"3358",-102.96
"3359",-76.4
"3360",-29.57
"3361",30.03
"3362",90.33
"3363",138.47
"3364",164.39
"3365",163.95
"3366",139.37
"3367",97.69
"3368",47.84
"3369",-1.81
"3370",-44.13
"3371",-73.43
"3372",-85.61
"3373",-79.55
"3374",-58.43
"3375",-30.12
"3376",-5.25
"3377",6.51
"3378",0.01
"3379",-23.33
"3380",-57
"3381",-92.75
"3382",-124.14
"3383",-148.26
"3384",-165.41
"3385",-177.81
"3386",-188.17
"3387",-198.91
"3388",-210.93
"3389",-223.19
"3390",-232.2
"3391",-232.36
"3392",-218.06
"3393",-186.04
"3394",-137.63
"3395",-78.71
"3396",-17.7
"3397",37.35
"3398",80.72
"3399",110.42
"3400",127.86
"3401",136.5
"3402",140.47
"3403",143.69
"3404",149.42
"3405",159.89
"3406",175.62
"3407",194.44
"3408",211.39
"3409",219.86
"3410",214.03
"3411",191.68
"3412",156.13
"3413",115.38
"3414",79.16
"3415",54.98
"3416",44.67
"3417",43.93
"3418",44.06
"3419",36.22
"3420",15.68
"3421",-15.77
"3422",-50.44
"3423",-77.6
"3424",-87.4
"3425",-74.55
"3426",-40.37
"3427",6.87
"3428",54.16
"3429",87.28
"3430",95.02
"3431",72.69
"3432",23.9
"3433",-39.84
"3434",-102.73
"3435",-149.92
"3436",-173.16
"3437",-173.79
"3438",-161.28
"3439",-147.44
"3440",-139.54
"3441",-136.34
"3442",-129.73
"3443",-111.4
"3444",-79.56
"3445",-41.74
"3446",-11.56
"3447",-1.46
"3448",-16.04
"3449",-49.92
"3450",-91.98
"3451",-132.23
"3452",-166.52
"3453",-196.17
"3454",-223.78
"3455",-248.95
"3456",-266.88
"3457",-271.3
"3458",-258.24
"3459",-228.9
"3460",-188.91
"3461",-145.51
"3462",-104.23
"3463",-67.71
"3464",-36.33
"3465",-9.77
"3466",11.62
"3467",27.12
"3468",36.65
"3469",41.46
"3470",43.69
"3471",45.55
"3472",48.64
"3473",54.3
"3474",64.44
"3475",80.76
"3476",104.08
"3477",132.64
"3478",161.4
"3479",183.2
"3480",191.19
"3481",181.78
"3482",156.32
"3483",120.83
"3484",82.14
"3485",45.68
"3486",13.33
"3487",-15.87
"3488",-43.28
"3489",-68.31
"3490",-87.46
"3491",-95.99
"3492",-90.03
"3493",-70.37
"3494",-41.05
"3495",-7.81
"3496",24.96
"3497",56.17
"3498",87.81
"3499",121.97
"3500",154.12
"3501",182.03
"3502",196.46
"3503",190.4
"3504",163.05
"3505",121.62
"3506",78.68
"3507",46.83
"3508",33.51
"3509",38.37
"3510",54.66
"3511",71.59
"3512",80.01
"3513",74.87
"3514",55.69
"3515",25.21
"3516",-12.54
"3517",-53.85
"3518",-95.99
"3519",-136.87
"3520",-175.52
"3521",-210.3
"3522",-238.62
"3523",-257
"3524",-262.02
"3525",-251.62
"3526",-226.44
"3527",-189.73
"3528",-146.16
"3529",-100.71
"3530",-56.81
"3531",-16.23
"3532",20.52
"3533",53.33
"3534",81.56
"3535",104.09
"3536",119.91
"3537",129.02
"3538",133
"3539",135.41
"3540",141.28
"3541",155.57
"3542",180.9
"3543",215.31
"3544",251.84
"3545",279.98
"3546",289.33
"3547",273.81
"3548",234.39
"3549",178.93
"3550",119.36
"3551",67.12
"3552",29.34
"3553",7.45
"3554",-2.14
"3555",-5.81
"3556",-10.53
"3557",-22
"3558",-43.51
"3559",-74.88
"3560",-112.15
"3561",-147.86
"3562",-173.18
"3563",-180.56
"3564",-166.17
"3565",-131.03
"3566",-81.1
"3567",-26.17
"3568",22.45
"3569",54.53
"3570",63.97
"3571",51.09
"3572",23.29
"3573",-6.97
"3574",-26.55
"3575",-26.94
"3576",-7.43
"3577",24.89
"3578",58.72
"3579",83.38
"3580",92.52
"3581",84.68
"3582",61.94
"3583",27.35
"3584",-16.53
"3585",-67.24
"3586",-121.25
"3587",-173.15
"3588",-216.15
"3589",-243.83
"3590",-252.86
"3591",-244.26
"3592",-223.05
"3593",-195.74
"3594",-167.3
"3595",-139.15
"3596",-109.2
"3597",-73.9
"3598",-30.72
"3599",19.67
"3600",73.44
"3601",125.48
"3602",171.78
"3603",211.26
"3604",245.36
"3605",276.02
"3606",303.27
"3607",324.06
"3608",333.34
"3609",326.91
"3610",304.51
"3611",270.74
"3612",233.43
"3613",199.66
"3614",172.36
"3615",149.19
"3616",124.46
"3617",93.32
"3618",55.18
"3619",14.41
"3620",-22.12
"3621",-48.9
"3622",-65.11
"3623",-75.37
"3624",-87.23
"3625",-106.94
"3626",-135.6
"3627",-167.45
"3628",-191.27
"3629",-195.2
"3630",-171.98
"3631",-122.72
"3632",-56.88
"3633",11.55
"3634",69.61
"3635",109.53
"3636",129.32
"3637",130.64
"3638",116.02
"3639",88.15
"3640",51.18
"3641",12.29
"3642",-19.37
"3643",-36.61
"3644",-38.67
"3645",-32.69
"3646",-30.08
"3647",-39.96
"3648",-63.92
"3649",-95.49
"3650",-124.51
"3651",-143.89
"3652",-153.75
"3653",-160.57
"3654",-172.41
"3655",-193.9
"3656",-224.3
"3657",-258.89
"3658",-292.3
"3659",-320.23
"3660",-339.43
"3661",-346.76
"3662",-338.61
"3663",-312.15
"3664",-266.92
"3665",-206.33
"3666",-137.11
"3667",-67.4
"3668",-4.35
"3669",47.35
"3670",85.84
"3671",111.64
"3672",126.45
"3673",132.78
"3674",133.48
"3675",131.68
"3676",130.6
"3677",133.34
"3678",142.42
"3679",159.41
"3680",184.01
"3681",213.05
"3682",240.71
"3683",259.72
"3684",263.93
"3685",250.86
"3686",223.17
"3687",187.57
"3688",152.03
"3689",122.64
"3690",100.99
"3691",84.14
"3692",66.59
"3693",43.49
"3694",13.49
"3695",-20.36
"3696",-51.03
"3697",-70.39
"3698",-72.06
"3699",-54.17
"3700",-19.92
"3701",23.51
"3702",67.21
"3703",103.56
"3704",128.21
"3705",141.37
"3706",146.88
"3707",149.9
"3708",153.91
"3709",158.62
"3710",159.67
"3711",150.37
"3712",125.33
"3713",83.39
"3714",29.12
"3715",-28.87
"3716",-81.47
"3717",-123.44
"3718",-155.12
"3719",-181.3
"3720",-208.44
"3721",-240.53
"3722",-277.34
"3723",-314.57
"3724",-346.43
"3725",-367.82
"3726",-375.97
"3727",-371.18
"3728",-355.65
"3729",-332.49
"3730",-303.59
"3731",-269.41
"3732",-229.73
"3733",-185.22
"3734",-138.6
"3735",-94.52
"3736",-58.17
"3737",-32.75
"3738",-18.11
"3739",-10.77
"3740",-5.8
"3741",0.76
"3742",10.48
"3743",22.78
"3744",36.75
"3745",52.69
"3746",72.69
"3747",98.82
"3748",130.79
"3749",163.81
"3750",188.97
"3751",196.65
"3752",180.67
"3753",141.86
"3754",88.28
"3755",32.77
"3756",-12.81
"3757",-41.92
"3758",-55.01
"3759",-57.01
"3760",-52.84
"3761",-44.48
"3762",-31.01
"3763",-11.17
"3764",14.12
"3765",41.02
"3766",64.96
"3767",83.6
"3768",98.61
"3769",114.89
"3770",137.52
"3771",168.2
"3772",203.92
"3773",238.31
"3774",264.96
"3775",280.62
"3776",286.39
"3777",286.12
"3778",284.02
"3779",282
"3780",278.52
"3781",269.6
"3782",251.12
"3783",221.85
"3784",184.9
"3785",146.51
"3786",112.29
"3787",84.57
"3788",62.06
"3789",41.83
"3790",22.67
"3791",7.45
"3792",2.01
"3793",11.13
"3794",34.33
"3795",63.54
"3796",86.64
"3797",93.33
"3798",79.72
"3799",49.44
"3800",10.97
"3801",-27.06
"3802",-59.67
"3803",-86.2
"3804",-109.27
"3805",-131.14
"3806",-149.09
"3807",-156.79
"3808",-148.72
"3809",-124.37
"3810",-88.83
"3811",-52.83
"3812",-21.12
"3813",4.87
"3814",25.64
"3815",42.77
"3816",58.67
"3817",73.99
"3818",88.18
"3819",100.11
"3820",108.63
"3821",113.57
"3822",114.78
"3823",112.69
"3824",108.5
"3825",103.46
"3826",98.21
"3827",93.02
"3828",88.09
"3829",83.85
"3830",81.28
"3831",81
"3832",83.24
"3833",88.13
"3834",95.18
"3835",103.2
"3836",110.66
"3837",115.76
"3838",117.4
"3839",115.41
"3840",110.15
"3841",102.06
"3842",91.78
"3843",79.91
"3844",66.81
"3845",52.86
"3846",38.17
"3847",23.08
"3848",8.2
"3849",-5.83
"3850",-18.82
"3851",-30.85
"3852",-42.06
"3853",-52.66
"3854",-62.6
"3855",-72.53
"3856",-82.55
"3857",-92.1
"3858",-100.42
"3859",-107.21
"3860",-112.91
"3861",-118.07
"3862",-123.24
"3863",-128.52
"3864",-135.93
"3865",-146.13
"3866",-157.92
"3867",-168.83
"3868",-176.76
"3869",-180.97
"3870",-181.32
"3871",-177.96
"3872",-170.74
"3873",-163.97
"3874",-160.33
"3875",-159.81
"3876",-160.87
"3877",-163.37
"3878",-169.36
"3879",-181.88
"3880",-203.44
"3881",-234.61
"3882",-281.33
"3883",-344.84
"3884",-419.8
"3885",-496.83
"3886",-567.72
"3887",-628.32
"3888",-678.45
"3889",-720.5
"3890",-757.71
"3891",-801.82
"3892",-857.99
"3893",-919.99
"3894",-973.01
"3895",-1002.27
"3896",-999.22
"3897",-964.26
"3898",-905.5
"3899",-773.9
"3900",-561.03
"3901",-299.75
"3902",-44.59
"3903",163.33
"3904",310.58
"3905",404.41
"3906",458.38
"3907",485.02
"3908",491.43
"3909",477.8
"3910",445.86
"3911",402.77
"3912",359.17
"3913",323.32
"3914",300.7
"3915",292.49
"3916",296.59
"3917",309.33
"3918",318.98
"3919",317.57
"3920",304.21
"3921",283.11
"3922",258.36
"3923",235.8
"3924",218.74
"3925",207.82
"3926",201.84
"3927",195.44
"3928",187.08
"3929",181.18
"3930",185.81
"3931",208.06
"3932",256.87
"3933",336.06
"3934",442.46
"3935",566.58
"3936",693.7
"3937",810.93
"3938",910.35
"3939",988.24
"3940",1008.23
"3941",947.68
"3942",809.14
"3943",621.44
"3944",421.75
"3945",236.55
"3946",77.71
"3947",-52.52
"3948",-156.71
"3949",-239.43
"3950",-300.19
"3951",-339.16
"3952",-359.43
"3953",-367.47
"3954",-371.93
"3955",-377.81
"3956",-385.75
"3957",-393.65
"3958",-398.37
"3959",-392.55
"3960",-370.49
"3961",-330.73
"3962",-276.64
"3963",-212.91
"3964",-147.64
"3965",-87.72
"3966",-37.68
"3967",0.28
"3968",28.43
"3969",49.99
"3970",67.04
"3971",79.38
"3972",86.05
"3973",86.54
"3974",81.79
"3975",73.52
"3976",63.47
"3977",54.19
"3978",47.71
"3979",44.7
"3980",43.66
"3981",42.71
"3982",40.38
"3983",36.41
"3984",31.44
"3985",26.5
"3986",22.8
"3987",21.55
"3988",23.22
"3989",26.76
"3990",31.04
"3991",35.32
"3992",39.51
"3993",44.26
"3994",51.94
"3995",61.64
"3996",72.62
"3997",83.52
"3998",91.64
"3999",94.53
"4000",90.55
"4001",79.35
"4002",62.15
"4003",40.76
"4004",16.9
"4005",-9.58
"4006",-36.08
"4007",-60.91
"4008",-85.12
"4009",-108.51
"4010",-129.65
"4011",-146.12
"4012",-155.55
"4013",-156.49
"4014",-147.94
"4015",-130
"4016",-104.48
"4017",-74.04
"4018",-43.12
"4019",-17.86
"4020",-3.88
"4021",-4.16
"4022",-16.65
"4023",-33.61
"4024",-45.26
"4025",-44.44
"4026",-29.14
"4027",-3.81
"4028",23.05
"4029",43.74
"4030",54.56
"4031",57.22
"4032",57.44
"4033",61.48
"4034",70.21
"4035",84.47
"4036",103.47
"4037",125.5
"4038",148.71
"4039",170.71
"4040",188.99
"4041",201.57
"4042",207.32
"4043",206.69
"4044",202.35
"4045",197.24
"4046",193.79
"4047",192.91
"4048",193.38
"4049",192.72
"4050",188.18
"4051",177.47
"4052",159.62
"4053",135.57
"4054",106.92
"4055",76.24
"4056",46.67
"4057",21.17
"4058",1.88
"4059",-10.15
"4060",-15.49
"4061",-15.58
"4062",-11.92
"4063",-6.04
"4064",1.08
"4065",8.67
"4066",15.96
"4067",21.88
"4068",25.58
"4069",26.61
"4070",25.46
"4071",23.2
"4072",20.51
"4073",17.31
"4074",12.63
"4075",5.28
"4076",-5.14
"4077",-17.63
"4078",-30.3
"4079",-41.06
"4080",-48.65
"4081",-53.14
"4082",-55.59
"4083",-57.28
"4084",-59.36
"4085",-62.48
"4086",-66.69
"4087",-71.48
"4088",-75.49
"4089",-76.74
"4090",-73.23
"4091",-64.08
"4092",-50.37
"4093",-35.42
"4094",-23.42
"4095",-17.74
"4096",-19.23
"4097",-26.15
"4098",-34.91
"4099",-41.98
"4100",-45.18
"4101",-43.63
"4102",-37.35
"4103",-26.37
"4104",-10.89
"4105",8.24
"4106",29.38
"4107",50.64
"4108",70.53
"4109",88.71
"4110",105.61
"4111",121.22
"4112",134.19
"4113",141.79
"4114",140.85
"4115",129.67
"4116",109.3
"4117",83.1
"4118",55.22
"4119",28.5
"4120",3.39
"4121",-21.48
"4122",-47.59
"4123",-75.05
"4124",-102.22
"4125",-126.34
"4126",-144.82
"4127",-156.16
"4128",-160.61
"4129",-159.88
"4130",-156.13
"4131",-150.61
"4132",-143.46
"4133",-133.99
"4134",-121.78
"4135",-107.29
"4136",-91.84
"4137",-76.89
"4138",-63.43
"4139",-51.29
"4140",-39.41
"4141",-26.91
"4142",-14.21
"4143",-4.1
"4144",-1.04
"4145",-9.2
"4146",-30
"4147",-61.02
"4148",-96.72
"4149",-130.96
"4150",-159.6
"4151",-181.62
"4152",-198.54
"4153",-212.37
"4154",-223.85
"4155",-231.9
"4156",-234.72
"4157",-231.39
"4158",-223.11
"4159",-212.63
"4160",-202.6
"4161",-193.95
"4162",-185.73
"4163",-175.93
"4164",-162.86
"4165",-146.07
"4166",-126.31
"4167",-105.25
"4168",-84.9
"4169",-67
"4170",-52.47
"4171",-41.38
"4172",-32.97
"4173",-26.03
"4174",-19.38
"4175",-12.26
"4176",-4.74
"4177",2.54
"4178",8.75
"4179",13.41
"4180",16.76
"4181",19.53
"4182",22.55
"4183",26.19
"4184",29.91
"4185",32.39
"4186",32.19
"4187",28.4
"4188",21.11
"4189",11.62
"4190",1.97
"4191",-5.86
"4192",-10.36
"4193",-10.96
"4194",-7.96
"4195",-2.13
"4196",5.49
"4197",13.64
"4198",21.18
"4199",26.93
"4200",29.97
"4201",29.68
"4202",26.08
"4203",20.13
"4204",13.59
"4205",8.88
"4206",8.26
"4207",13.41
"4208",24.75
"4209",41.75
"4210",63.08
"4211",87.14
"4212",112.48
"4213",137.84
"4214",162.04
"4215",183.61
"4216",201.02
"4217",212.58
"4218",216.93
"4219",213.3
"4220",201.41
"4221",181.53
"4222",154.64
"4223",122.54
"4224",87.87
"4225",54.08
"4226",24.58
"4227",2.03
"4228",-12.37
"4229",-19.08
"4230",-19.56
"4231",-15.37
"4232",-7.48
"4233",3.81
"4234",18.22
"4235",34.76
"4236",51.54
"4237",66.29
"4238",76.89
"4239",82.29
"4240",82.4
"4241",77.83
"4242",69.38
"4243",57.95
"4244",44.34
"4245",29.58
"4246",14.78
"4247",0.42
"4248",-13.65
"4249",-28.44
"4250",-45.2
"4251",-64.41
"4252",-84.73
"4253",-103.11
"4254",-115.67
"4255",-119.46
"4256",-114.28
"4257",-102.77
"4258",-89.44
"4259",-78.16
"4260",-69.9
"4261",-62.12
"4262",-50.14
"4263",-29.8
"4264",0.05
"4265",36.43
"4266",73.67
"4267",105.65
"4268",127.95
"4269",139.16
"4270",140.14
"4271",132.59
"4272",118.09
"4273",98
"4274",73.88
"4275",48.29
"4276",24.11
"4277",3.79
"4278",-11.62
"4279",-22.92
"4280",-32.35
"4281",-42.45
"4282",-54.95
"4283",-70.29
"4284",-87.54
"4285",-105.23
"4286",-121.57
"4287",-134.85
"4288",-143.57
"4289",-146.43
"4290",-142.82
"4291",-133.02
"4292",-118.27
"4293",-100.41
"4294",-81.35
"4295",-62.26
"4296",-43.43
"4297",-24.53
"4298",-5.22
"4299",14.38
"4300",33.47
"4301",50.94
"4302",65.87
"4303",77.83
"4304",87.03
"4305",94.1
"4306",99.67
"4307",104.16
"4308",107.65
"4309",110.03
"4310",111.1
"4311",110.82
"4312",109.5
"4313",107.85
"4314",106.84
"4315",107.28
"4316",109.61
"4317",113.5
"4318",117.78
"4319",120.57
"4320",119.63
"4321",113.15
"4322",100.12
"4323",80.86
"4324",56.93
"4325",30.85
"4326",5.41
"4327",-16.87
"4328",-34.31
"4329",-46
"4330",-51.74
"4331",-51.97
"4332",-47.64
"4333",-40.18
"4334",-31.24
"4335",-22.53
"4336",-15.32
"4337",-10.33
"4338",-7.64
"4339",-6.99
"4340",-8.13
"4341",-10.9
"4342",-15.06
"4343",-20.1
"4344",-25.03
"4345",-28.61
"4346",-29.83
"4347",-28.63
"4348",-26.1
"4349",-24.07
"4350",-24.12
"4351",-27.04
"4352",-32.67
"4353",-40.65
"4354",-51.44
"4355",-66.3
"4356",-86.8
"4357",-113.76
"4358",-146.04
"4359",-180.6
"4360",-213.48
"4361",-241.39
"4362",-262.9
"4363",-278.59
"4364",-289.6
"4365",-296.13
"4366",-296.47
"4367",-287.12
"4368",-264.58
"4369",-227.07
"4370",-176.11
"4371",-116.46
"4372",-55.25
"4373",0.06
"4374",43.36
"4375",71.13
"4376",82.68
"4377",79.84
"4378",66.41
"4379",47.41
"4380",28.28
"4381",13.75
"4382",7.07
"4383",9.15
"4384",18.54
"4385",31.72
"4386",43.69
"4387",49.23
"4388",44.39
"4389",27.93
"4390",2.2
"4391",-27.23
"4392",-53.2
"4393",-69.39
"4394",-72.57
"4395",-63.52
"4396",-45.86
"4397",-24
"4398",-1.13
"4399",21.82
"4400",45.16
"4401",69.09
"4402",92.41
"4403",112.69
"4404",127.17
"4405",134.37
"4406",134.5
"4407",129.08
"4408",119.91
"4409",108.17
"4410",94.19
"4411",77.95
"4412",59.75
"4413",40.58
"4414",22.03
"4415",5.76
"4416",-7.11
"4417",-16.41
"4418",-22.89
"4419",-27.93
"4420",-32.91
"4421",-38.81
"4422",-45.9
"4423",-53.64
"4424",-61.17
"4425",-67.46
"4426",-71.82
"4427",-74.05
"4428",-74.37
"4429",-73.21
"4430",-71.07
"4431",-68.31
"4432",-65.02
"4433",-61
"4434",-55.71
"4435",-48.34
"4436",-38.2
"4437",-25.02
"4438",-9.32
"4439",7.47
"4440",23.31
"4441",36.05
"4442",44.04
"4443",46.56
"4444",43.83
"4445",36.71
"4446",26.14
"4447",13.04
"4448",-1.77
"4449",-17.32
"4450",-32.45
"4451",-45.85
"4452",-56.44
"4453",-63.65
"4454",-67.59
"4455",-69
"4456",-68.77
"4457",-67.68
"4458",-66.06
"4459",-63.85
"4460",-60.87
"4461",-56.97
"4462",-52.2
"4463",-46.85
"4464",-41.4
"4465",-36.26
"4466",-31.93
"4467",-28.65
"4468",-26.45
"4469",-25.03
"4470",-23.78
"4471",-21.77
"4472",-18.05
"4473",-11.84
"4474",-2.87
"4475",8.4
"4476",20.92
"4477",33.2
"4478",43.77
"4479",51.47
"4480",55.66
"4481",56.25
"4482",53.59
"4483",48.34
"4484",41.35
"4485",33.62
"4486",26.16
"4487",19.82
"4488",15.18
"4489",12.34
"4490",10.95
"4491",10.47
"4492",10.35
"4493",10.13
"4494",9.5
"4495",8.28
"4496",6.26
"4497",3.3
"4498",-0.7
"4499",-5.87
"4500",-12.47
"4501",-20.73
"4502",-30.76
"4503",-41.91
"4504",-52.73
"4505",-60.96
"4506",-64.2
"4507",-60.87
"4508",-50.83
"4509",-35.51
"4510",-17.39
"4511",0.83
"4512",17.1
"4513",30.12
"4514",39.37
"4515",44.93
"4516",47.11
"4517",46.55
"4518",44.14
"4519",40.89
"4520",37.73
"4521",35.34
"4522",33.85
"4523",33.05
"4524",32.54
"4525",31.86
"4526",30.67
"4527",28.91
"4528",26.6
"4529",23.9
"4530",20.91
"4531",17.63
"4532",13.84
"4533",9.26
"4534",3.46
"4535",-3.68
"4536",-11.79
"4537",-19.85
"4538",-26.24
"4539",-29.28
"4540",-27.73
"4541",-21.33
"4542",-10.93
"4543",1.63
"4544",14.28
"4545",25.28
"4546",33.56
"4547",38.79
"4548",41.03
"4549",40.51
"4550",37.63
"4551",32.96
"4552",27.3
"4553",21.68
"4554",16.99
"4555",13.81
"4556",12.13
"4557",11.42
"4558",10.93
"4559",10.05
"4560",8.45
"4561",6.2
"4562",3.45
"4563",0.27
"4564",-3.42
"4565",-7.75
"4566",-12.9
"4567",-18.92
"4568",-25.69
"4569",-32.92
"4570",-39.91
"4571",-45.67
"4572",-48.99
"4573",-48.82
"4574",-44.68
"4575",-37.1
"4576",-27.77
"4577",-19.16
"4578",-13.63
"4579",-12.61
"4580",-16.01
"4581",-22.27
"4582",-29.08
"4583",-34.3
"4584",-36.63
"4585",-35.93
"4586",-32.94
"4587",-28.72
"4588",-24.11
"4589",-19.6
"4590",-15.4
"4591",-11.76
"4592",-9.13
"4593",-7.8
"4594",-7.79
"4595",-8.56
"4596",-9.25
"4597",-8.86
"4598",-6.85
"4599",-3.5
"4600",0.22
"4601",2.98
"4602",3.72
"4603",2.4
"4604",0.19
"4605",-0.69
"4606",2.27
"4607",10.97
"4608",25.82
"4609",45.54
"4610",67.76
"4611",89.82
"4612",109.64
"4613",126.09
"4614",138.69
"4615",147.06
"4616",150.55
"4617",148.3
"4618",139.9
"4619",126.01
"4620",108.7
"4621",90.75
"4622",75.06
"4623",63.59
"4624",57
"4625",54.59
"4626",54.71
"4627",55.29
"4628",54.21
"4629",49.65
"4630",40.33
"4631",25.79
"4632",6.54
"4633",-15.66
"4634",-38.24
"4635",-58.21
"4636",-72.84
"4637",-80.38
"4638",-80.54
"4639",-74.44
"4640",-64.24
"4641",-52.58
"4642",-41.58
"4643",-32.46
"4644",-25.32
"4645",-19.31
"4646",-13.34
"4647",-6.56
"4648",1.3
"4649",9.82
"4650",18.05
"4651",24.94
"4652",29.67
"4653",31.99
"4654",32.28
"4655",31.26
"4656",29.9
"4657",29.01
"4658",28.96
"4659",29.68
"4660",30.87
"4661",32.19
"4662",33.46
"4663",34.99
"4664",37.07
"4665",40.14
"4666",44.43
"4667",49.8
"4668",55.93
"4669",62.41
"4670",68.78
"4671",74.48
"4672",78.95
"4673",81.44
"4674",81.35
"4675",78.35
"4676",72.51
"4677",64.49
"4678",55.39
"4679",46.45
"4680",38.63
"4681",32.49
"4682",27.85
"4683",24.21
"4684",20.82
"4685",16.97
"4686",12.34
"4687",6.69
"4688",-0.06
"4689",-8
"4690",-17.15
"4691",-27.57
"4692",-39.07
"4693",-51.24
"4694",-63.53
"4695",-74.93
"4696",-84.36
"4697",-90.53
"4698",-92.26
"4699",-88.78
"4700",-80.15
"4701",-67.36
"4702",-52.09
"4703",-36.36
"4704",-21.88
"4705",-9.9
"4706",-0.94
"4707",4.91
"4708",7.95
"4709",8.8
"4710",8.26
"4711",7.39
"4712",7.11
"4713",8.1
"4714",10.61
"4715",14.49
"4716",19.33
"4717",24.69
"4718",30.26
"4719",35.91
"4720",41.7
"4721",47.69
"4722",53.81
"4723",59.71
"4724",64.83
"4725",68.39
"4726",69.49
"4727",67.59
"4728",62.56
"4729",54.94
"4730",45.77
"4731",36.32
"4732",27.68
"4733",20.7
"4734",15.96
"4735",13.65
"4736",14
"4737",16.78
"4738",21.42
"4739",26.78
"4740",31.35
"4741",33.69
"4742",33.06
"4743",29.73
"4744",24.75
"4745",19.36
"4746",14.39
"4747",9.99
"4748",5.88
"4749",1.78
"4750",-2.22
"4751",-5.61
"4752",-7.92
"4753",-9.08
"4754",-9.71
"4755",-10.93
"4756",-13.73
"4757",-18.33
"4758",-24.1
"4759",-29.79
"4760",-34.12
"4761",-36.39
"4762",-36.55
"4763",-35.09
"4764",-32.75
"4765",-30.02
"4766",-26.92
"4767",-23.29
"4768",-18.93
"4769",-14
"4770",-8.93
"4771",-4.16
"4772",0.04
"4773",3.71
"4774",7.05
"4775",10.23
"4776",13.19
"4777",15.63
"4778",17.13
"4779",17.5
"4780",16.97
"4781",16.22
"4782",16.11
"4783",17.29
"4784",19.8
"4785",23.18
"4786",26.82
"4787",30.32
"4788",33.73
"4789",37.37
"4790",41.35
"4791",45.23
"4792",48.08
"4793",49.11
"4794",48.54
"4795",47.94
"4796",49.51
"4797",55.06
"4798",65
"4799",78.18
"4800",92.71
"4801",106.85
"4802",119.41
"4803",129.15
"4804",134.19
"4805",131.38
"4806",117.05
"4807",88.83
"4808",47.75
"4809",-0.93
"4810",-48.97
"4811",-88.01
"4812",-112.77
"4813",-122.38
"4814",-119.94
"4815",-110.03
"4816",-96.36
"4817",-80.23
"4818",-61.21
"4819",-38.9
"4820",-14.7
"4821",7.88
"4822",24.51
"4823",32.14
"4824",30.62
"4825",22.65
"4826",12.29
"4827",3.11
"4828",-3.27
"4829",-7.21
"4830",-10.17
"4831",-13.39
"4832",-16.98
"4833",-19.85
"4834",-20.05
"4835",-16.3
"4836",-8.42
"4837",2.29
"4838",13.7
"4839",23.6
"4840",30.61
"4841",34.6
"4842",36.56
"4843",38.14
"4844",40.57
"4845",44.35
"4846",48.97
"4847",53.35
"4848",56.43
"4849",57.76
"4850",57.53
"4851",56.31
"4852",54.7
"4853",52.77
"4854",50.24
"4855",46.7
"4856",42.01
"4857",36.48
"4858",30.81
"4859",25.78
"4860",21.8
"4861",18.87
"4862",16.52
"4863",14.25
"4864",11.79
"4865",9.1
"4866",6.42
"4867",3.91
"4868",1.58
"4869",-0.76
"4870",-3.29
"4871",-6.16
"4872",-9.33
"4873",-12.66
"4874",-16.16
"4875",-19.86
"4876",-24.03
"4877",-28.93
"4878",-34.78
"4879",-41.54
"4880",-49.04
"4881",-56.94
"4882",-64.7
"4883",-71.82
"4884",-77.6
"4885",-81.34
"4886",-82.41
"4887",-80.23
"4888",-74.48
"4889",-65.2
"4890",-53.03
"4891",-39.07
"4892",-24.81
"4893",-11.69
"4894",-0.83
"4895",7.19
"4896",12.39
"4897",15.24
"4898",16.49
"4899",16.85
"4900",16.92
"4901",17.08
"4902",17.56
"4903",18.3
"4904",19.09
"4905",19.64
"4906",19.67
"4907",19.09
"4908",17.9
"4909",16.24
"4910",14.19
"4911",11.92
"4912",9.56
"4913",7.22
"4914",5.04
"4915",2.97
"4916",0.97
"4917",-1.07
"4918",-3.17
"4919",-5.31
"4920",-7.41
"4921",-9.43
"4922",-11.46
"4923",-13.66
"4924",-16.31
"4925",-19.51
"4926",-23.13
"4927",-26.68
"4928",-29.45
"4929",-30.69
"4930",-29.69
"4931",-26.03
"4932",-19.77
"4933",-11.5
"4934",-2.35
"4935",6.4
"4936",13.65
"4937",18.81
"4938",21.85
"4939",23.2
"4940",23.53
"4941",23.34
"4942",22.91
"4943",22.21
"4944",21.03
"4945",19.19
"4946",16.55
"4947",13.18
"4948",9.18
"4949",4.84
"4950",0.53
"4951",-3.45
"4952",-6.76
"4953",-9.27
"4954",-11.05
"4955",-12.31
"4956",-13.44
"4957",-14.91
"4958",-17.07
"4959",-20.09
"4960",-23.85
"4961",-27.99
"4962",-32.13
"4963",-35.88
"4964",-39.12
"4965",-41.84
"4966",-44.22
"4967",-46.3
"4968",-48.08
"4969",-49.37
"4970",-49.87
"4971",-49.39
"4972",-47.68
"4973",-44.76
"4974",-40.76
"4975",-35.92
"4976",-30.57
"4977",-25.05
"4978",-19.76
"4979",-14.97
"4980",-11.04
"4981",-8.12
"4982",-6.2
"4983",-5.1
"4984",-4.47
"4985",-3.91
"4986",-3.22
"4987",-2.31
"4988",-1.24
"4989",-0.35
"4990",0.02
"4991",-0.52
"4992",-2.21
"4993",-5.06
"4994",-8.83
"4995",-13.1
"4996",-17.3
"4997",-20.81
"4998",-23.35
"4999",-24.85
"5000",-25.49
"5001",-25.55
"5002",-25.27
"5003",-24.85
"5004",-24.44
"5005",-24.13
"5006",-24.05
"5007",-24.34
"5008",-25.02
"5009",-25.93
"5010",-26.87
"5011",-27.52
"5012",-27.6
"5013",-26.89
"5014",-25.21
"5015",-22.42
"5016",-18.57
"5017",-13.74
"5018",-8.08
"5019",-1.98
"5020",4.27
"5021",10.32
"5022",15.86
"5023",20.6
"5024",24.39
"5025",27.05
"5026",28.57
"5027",29.01
"5028",28.46
"5029",27.19
"5030",25.5
"5031",23.65
"5032",21.82
"5033",20.11
"5034",18.4
"5035",16.63
"5036",14.75
"5037",12.71
"5038",10.7
"5039",8.86
"5040",7.23
"5041",5.68
"5042",4
"5043",1.89
"5044",-0.77
"5045",-3.98
"5046",-7.67
"5047",-11.55
"5048",-15.36
"5049",-18.85
"5050",-21.81
"5051",-24.06
"5052",-25.61
"5053",-26.5
"5054",-26.88
"5055",-27.04
"5056",-27.03
"5057",-26.86
"5058",-26.32
"5059",-25.11
"5060",-23.1
"5061",-20.39
"5062",-17.25
"5063",-14.07
"5064",-11.3
"5065",-9.1
"5066",-7.69
"5067",-7.17
"5068",-7.62
"5069",-9.05
"5070",-11.34
"5071",-14.1
"5072",-16.71
"5073",-18.61
"5074",-19.26
"5075",-18.41
"5076",-16.1
"5077",-12.58
"5078",-8.35
"5079",-3.82
"5080",0.67
"5081",4.98
"5082",9.04
"5083",12.86
"5084",16.39
"5085",19.46
"5086",21.93
"5087",23.62
"5088",24.6
"5089",25.03
"5090",25.21
"5091",25.46
"5092",25.94
"5093",26.68
"5094",27.59
"5095",28.53
"5096",29.21
"5097",29.32
"5098",28.47
"5099",26.3
"5100",22.79
"5101",18.17
"5102",13.1
"5103",8.39
"5104",4.91
"5105",3.34
"5106",3.9
"5107",6.49
"5108",10.62
"5109",15.68
"5110",20.92
"5111",25.75
"5112",29.68
"5113",32.53
"5114",34.28
"5115",35.1
"5116",35.16
"5117",34.55
"5118",33.38
"5119",31.66
"5120",29.36
"5121",26.4
"5122",22.71
"5123",18.3
"5124",13.35
"5125",8.09
"5126",2.86
"5127",-1.91
"5128",-5.89
"5129",-8.9
"5130",-10.98
"5131",-12.41
"5132",-13.64
"5133",-15.17
"5134",-17.45
"5135",-20.66
"5136",-24.8
"5137",-29.52
"5138",-34.33
"5139",-38.65
"5140",-42
"5141",-44.1
"5142",-44.84
"5143",-44.36
"5144",-42.87
"5145",-40.59
"5146",-37.53
"5147",-33.42
"5148",-27.77
"5149",-20.2
"5150",-10.52
"5151",1.17
"5152",14.56
"5153",29.2
"5154",44.61
"5155",60.29
"5156",75.67
"5157",89.68
"5158",101.22
"5159",109.69
"5160",115.13
"5161",118.22
"5162",119.91
"5163",121.05
"5164",122.14
"5165",123.33
"5166",124.29
"5167",124.77
"5168",124.92
"5169",125.13
"5170",125.47
"5171",125.24
"5172",122.89
"5173",116.57
"5174",104.82
"5175",86.75
"5176",62.99
"5177",35.9
"5178",8.81
"5179",-15.12
"5180",-33.57
"5181",-45.09
"5182",-48.55
"5183",-43.34
"5184",-31.67
"5185",-16.57
"5186",-0.97
"5187",12.96
"5188",23.51
"5189",29.38
"5190",30.13
"5191",26.79
"5192",21.24
"5193",11.31
"5194",-4.75
"5195",-26.39
"5196",-50.17
"5197",-72.04
"5198",-89.61
"5199",-102.63
"5200",-111.95
"5201",-118.4
"5202",-128.85
"5203",-147.82
"5204",-175.51
"5205",-207.95
"5206",-241.49
"5207",-275.4
"5208",-311.01
"5209",-348.89
"5210",-387.69
"5211",-433.14
"5212",-488.55
"5213",-552.58
"5214",-618.81
"5215",-680.51
"5216",-734.18
"5217",-779.59
"5218",-817.44
"5219",-795.2
"5220",-682.97
"5221",-489.7
"5222",-261.18
"5223",-45.77
"5224",130.65
"5225",263.57
"5226",359.09
"5227",426.61
"5228",474.86
"5229",500.55
"5230",503.92
"5231",489.04
"5232",466.27
"5233",447.6
"5234",441.27
"5235",449.92
"5236",471.37
"5237",499.94
"5238",522.22
"5239",525.9
"5240",505.38
"5241",464.43
"5242",412
"5243",356.1
"5244",301.18
"5245",248.62
"5246",198.1
"5247",145.48
"5248",89.41
"5249",32.83
"5250",-17.28
"5251",-54.06
"5252",-74.23
"5253",-78.96
"5254",-72.17
"5255",-58.87
"5256",-45.23
"5257",-35.31
"5258",-30.28
"5259",-28.57
"5260",-28.07
"5261",-27.7
"5262",-27.78
"5263",-28.99
"5264",-31.57
"5265",-35.77
"5266",-41.36
"5267",-47.71
"5268",-54.19
"5269",-60.43
"5270",-66.26
"5271",-71.16
"5272",-74.25
"5273",-74.77
"5274",-72.45
"5275",-67.93
"5276",-62.38
"5277",-57
"5278",-52.6
"5279",-49.31
"5280",-46.75
"5281",-44.27
"5282",-41.3
"5283",-37.51
"5284",-33.01
"5285",-28.22
"5286",-23.64
"5287",-19.58
"5288",-15.88
"5289",-12.16
"5290",-8.05
"5291",-3.5
"5292",1.05
"5293",4.91
"5294",7.46
"5295",8.53
"5296",8.46
"5297",8.02
"5298",7.78
"5299",8
"5300",8.43
"5301",8.59
"5302",8.01
"5303",6.65
"5304",4.84
"5305",3.09
"5306",1.93
"5307",1.45
"5308",1.35
"5309",1.05
"5310",0.06
"5311",-1.76
"5312",-4.03
"5313",-6.25
"5314",-7.98
"5315",-9.17
"5316",-10.13
"5317",-11.27
"5318",-12.89
"5319",-14.82
"5320",-16.44
"5321",-16.85
"5322",-15.41
"5323",-11.92
"5324",-6.73
"5325",-0.71
"5326",5.24
"5327",10.3
"5328",13.83
"5329",15.34
"5330",14.35
"5331",10.44
"5332",3.78
"5333",-4.61
"5334",-13.16
"5335",-20.12
"5336",-24.48
"5337",-26.4
"5338",-26.94
"5339",-27.33
"5340",-28.23
"5341",-29.28
"5342",-29.42
"5343",-27.51
"5344",-22.93
"5345",-16.06
"5346",-8.12
"5347",-0.45
"5348",5.97
"5349",10.87
"5350",14.53
"5351",17.23
"5352",18.73
"5353",18.25
"5354",14.85
"5355",8.13
"5356",-1.42
"5357",-12.6
"5358",-24.02
"5359",-34.85
"5360",-44.91
"5361",-54.22
"5362",-62.61
"5363",-69.62
"5364",-74.89
"5365",-78.49
"5366",-81.34
"5367",-85.13
"5368",-92.04
"5369",-103.81
"5370",-120.64
"5371",-140.69
"5372",-160.23
"5373",-175.02
"5374",-181.91
"5375",-179.85
"5376",-170.03
"5377",-155.07
"5378",-137.71
"5379",-119.79
"5380",-102.52
"5381",-86.88
"5382",-74.61
"5383",-67.98
"5384",-68.72
"5385",-76.87
"5386",-90.17
"5387",-104.68
"5388",-116.05
"5389",-121.33
"5390",-119.14
"5391",-109.95
"5392",-95.39
"5393",-77.49
"5394",-58.12
"5395",-38.54
"5396",-19.1
"5397",0.77
"5398",21.98
"5399",46.28
"5400",75.83
"5401",112.19
"5402",155.42
"5403",203.48
"5404",252.68
"5405",298.94
"5406",339.18
"5407",372.37
"5408",399.74
"5409",423.41
"5410",444.55
"5411",462.66
"5412",475.82
"5413",481.76
"5414",479.16
"5415",467.69
"5416",447.57
"5417",418.92
"5418",381.56
"5419",335.19
"5420",280.77
"5421",220.95
"5422",159.75
"5423",101.29
"5424",48.25
"5425",1.01
"5426",-42.43
"5427",-85.36
"5428",-130.71
"5429",-179.35
"5430",-230
"5431",-279.37
"5432",-322.36
"5433",-353.51
"5434",-368.77
"5435",-367.3
"5436",-352.55
"5437",-332
"5438",-315.45
"5439",-312.21
"5440",-328
"5441",-362.31
"5442",-408.27
"5443",-454.59
"5444",-488.74
"5445",-500.5
"5446",-484.17
"5447",-439.28
"5448",-370.13
"5449",-284.68
"5450",-192.91
"5451",-105.21
"5452",-30.71
"5453",24.46
"5454",58.28
"5455",72.79
"5456",72.84
"5457",64.15
"5458",51.68
"5459",39.08
"5460",29.09
"5461",24.3
"5462",27.29
"5463",39.54
"5464",60.51
"5465",87.13
"5466",114.5
"5467",137.63
"5468",153.27
"5469",160.69
"5470",161.24
"5471",157.1
"5472",150.04
"5473",140.91
"5474",130.03
"5475",117.76
"5476",105.09
"5477",93.61
"5478",84.81
"5479",79.69
"5480",78.42
"5481",80.29
"5482",84.21
"5483",89.09
"5484",94.27
"5485",99.52
"5486",104.8
"5487",109.9
"5488",114.23
"5489",116.84
"5490",116.53
"5491",112.54
"5492",104.76
"5493",93.46
"5494",79.09
"5495",62.12
"5496",43.1
"5497",23.11
"5498",4.09
"5499",-11.67
"5500",-22.13
"5501",-26.38
"5502",-25.42
"5503",-21.86
"5504",-18.95
"5505",-19.17
"5506",-23.23
"5507",-30.34
"5508",-39.52
"5509",-49.86
"5510",-60.27
"5511",-69.3
"5512",-75.21
"5513",-76.68
"5514",-73.27
"5515",-65.35
"5516",-54.09
"5517",-42.04
"5518",-31.62
"5519",-23.86
"5520",-18.31
"5521",-13.9
"5522",-10.11
"5523",-7.04
"5524",-4.6
"5525",-2.6
"5526",-2.34
"5527",-5.31
"5528",-11.64
"5529",-19.32
"5530",-24.88
"5531",-25.17
"5532",-18.42
"5533",-4.79
"5534",13.19
"5535",29.03
"5536",35.4
"5537",27.43
"5538",4.59
"5539",-30.47
"5540",-74.22
"5541",-123.44
"5542",-175.32
"5543",-213.37
"5544",-222.24
"5545",-197.47
"5546",-149.27
"5547",-92.63
"5548",-38.1
"5549",9.21
"5550",47.61
"5551",77.23
"5552",98.86
"5553",111.58
"5554",114.71
"5555",108.94
"5556",97.01
"5557",82.75
"5558",69
"5559",57.3
"5560",48.16
"5561",40.91
"5562",32.41
"5563",18.35
"5564",-4.94
"5565",-38.25
"5566",-79.12
"5567",-122.17
"5568",-159.52
"5569",-182.32
"5570",-183.42
"5571",-161.27
"5572",-120.32
"5573",-69.33
"5574",-17.81
"5575",26.61
"5576",59.97
"5577",82.03
"5578",95.29
"5579",103.37
"5580",109.21
"5581",115.07
"5582",122.99
"5583",134.59
"5584",149.22
"5585",163.01
"5586",169.49
"5587",162.54
"5588",139.74
"5589",104.6
"5590",66.19
"5591",36.05
"5592",24.13
"5593",34.57
"5594",64.46
"5595",105.19
"5596",145.7
"5597",176.11
"5598",190.03
"5599",185.52
"5600",164.69
"5601",132.49
"5602",95.09
"5603",58.35
"5604",26.72
"5605",2.73
"5606",-12.76
"5607",-20.32
"5608",-21.67
"5609",-19.59
"5610",-17.28
"5611",-17.45
"5612",-21.19
"5613",-27.55
"5614",-34.02
"5615",-37.58
"5616",-36.22
"5617",-29.94
"5618",-20.67
"5619",-11.46
"5620",-5.47
"5621",-4.81
"5622",-10.02
"5623",-20.12
"5624",-32.75
"5625",-44.93
"5626",-53.97
"5627",-58.49
"5628",-58.91
"5629",-57.35
"5630",-56.47
"5631",-58.18
"5632",-62.77
"5633",-68.74
"5634",-73.64
"5635",-75.21
"5636",-72.19
"5637",-64.58
"5638",-53.38
"5639",-39.77
"5640",-24.74
"5641",-9.07
"5642",6.27
"5643",19.81
"5644",29.64
"5645",34.26
"5646",33.41
"5647",28.48
"5648",22.2
"5649",17.61
"5650",17.01
"5651",20.97
"5652",28.27
"5653",36.65
"5654",44.1
"5655",49.33
"5656",51.84
"5657",51.32
"5658",47.77
"5659",41.49
"5660",33.23
"5661",24.12
"5662",15.57
"5663",9.1
"5664",5.49
"5665",3.98
"5666",2.42
"5667",-1.35
"5668",-7.93
"5669",-16.25
"5670",-24.09
"5671",-29.06
"5672",-29.33
"5673",-24.49
"5674",-16.45
"5675",-8.7
"5676",-4.39
"5677",-4.38
"5678",-7.63
"5679",-11.76
"5680",-14.08
"5681",-11.98
"5682",-4.75
"5683",4.75
"5684",9.72
"5685",2.13
"5686",-23.63
"5687",-69.38
"5688",-132.07
"5689",-205.21
"5690",-279.97
"5691",-340.2
"5692",-367.12
"5693",-353.18
"5694",-308.85
"5695",-252.78
"5696",-199.58
"5697",-155.09
"5698",-120.16
"5699",-87.4
"5700",-51.26
"5701",-9.83
"5702",35.27
"5703",81.49
"5704",128.12
"5705",169.17
"5706",200.68
"5707",220.3
"5708",228.47
"5709",227.57
"5710",220.85
"5711",210.75
"5712",198.54
"5713",184.8
"5714",168.84
"5715",149.9
"5716",127.25
"5717",101.9
"5718",76.26
"5719",53.34
"5720",35.05
"5721",21.3
"5722",10.72
"5723",1.48
"5724",-6.39
"5725",-11.2
"5726",-9.97
"5727",-0.58
"5728",16.6
"5729",38.44
"5730",60.89
"5731",81.2
"5732",98.62
"5733",114.06
"5734",127.68
"5735",138.15
"5736",142.8
"5737",139.3
"5738",127.37
"5739",109.45
"5740",89.96
"5741",72.99
"5742",60.87
"5743",53.46
"5744",48.88
"5745",44.79
"5746",39.55
"5747",32.57
"5748",24.07
"5749",14.66
"5750",4.76
"5751",-5.47
"5752",-16.3
"5753",-28.43
"5754",-42.5
"5755",-58.5
"5756",-75.17
"5757",-90.29
"5758",-101.38
"5759",-106.83
"5760",-106.77
"5761",-103
"5762",-98.2
"5763",-94.7
"5764",-93.71
"5765",-95.18
"5766",-98.61
"5767",-103.65
"5768",-110.59
"5769",-120.12
"5770",-132.66
"5771",-147.96
"5772",-164.9
"5773",-182.2
"5774",-199.03
"5775",-214.9
"5776",-228.57
"5777",-236.97
"5778",-234.75
"5779",-215.57
"5780",-174.91
"5781",-112.75
"5782",-34.76
"5783",49.12
"5784",128.16
"5785",194.81
"5786",246.42
"5787",284.65
"5788",312.78
"5789",332.95
"5790",345.1
"5791",347.62
"5792",339.3
"5793",320.76
"5794",294.61
"5795",264.34
"5796",232.77
"5797",201.18
"5798",169.38
"5799",136.78
"5800",103.41
"5801",70.6
"5802",40.54
"5803",15.49
"5804",-3.36
"5805",-16.47
"5806",-25.79
"5807",-33.88
"5808",-42.81
"5809",-53.46
"5810",-65.27
"5811",-76.83
"5812",-86.5
"5813",-93.25
"5814",-96.82
"5815",-97.63
"5816",-96.49
"5817",-94.1
"5818",-90.98
"5819",-87.21
"5820",-82.57
"5821",-76.57
"5822",-68.61
"5823",-58.13
"5824",-44.87
"5825",-29.11
"5826",-11.82
"5827",5.54
"5828",21.45
"5829",34.77
"5830",45.09
"5831",52.85
"5832",58.95
"5833",64.33
"5834",69.48
"5835",74.44
"5836",78.89
"5837",82.49
"5838",84.99
"5839",86.16
"5840",85.95
"5841",84.44
"5842",81.82
"5843",78.27
"5844",73.96
"5845",68.71
"5846",62.15
"5847",53.87
"5848",43.74
"5849",32.14
"5850",19.86
"5851",7.66
"5852",-4.13
"5853",-15.51
"5854",-26.61
"5855",-37.21
"5856",-46.63
"5857",-53.93
"5858",-58.35
"5859",-59.63
"5860",-58.11
"5861",-54.51
"5862",-49.69
"5863",-44.53
"5864",-39.87
"5865",-36.32
"5866",-34.27
"5867",-33.55
"5868",-33.69
"5869",-34.18
"5870",-35.05
"5871",-36.88
"5872",-40.61
"5873",-46.8
"5874",-54.99
"5875",-63.65
"5876",-70.81
"5877",-75.02
"5878",-75.94
"5879",-74.46
"5880",-72.05
"5881",-69.95
"5882",-68.64
"5883",-67.67
"5884",-66.31
"5885",-63.83
"5886",-59.86
"5887",-53.99
"5888",-45.64
"5889",-33.9
"5890",-18.11
"5891",1.33
"5892",22.74
"5893",43.26
"5894",60.06
"5895",71.35
"5896",77.07
"5897",78.73
"5898",78.66
"5899",78.8
"5900",80.05
"5901",82.16
"5902",84.05
"5903",84.46
"5904",82.53
"5905",77.83
"5906",70.35
"5907",60.13
"5908",47.06
"5909",30.77
"5910",11.17
"5911",-11.35
"5912",-35.7
"5913",-60.1
"5914",-82.78
"5915",-102.33
"5916",-117.98
"5917",-129.32
"5918",-135.96
"5919",-137.53
"5920",-134.26
"5921",-127.32
"5922",-118.91
"5923",-111.59
"5924",-107.21
"5925",-106.26
"5926",-107.91
"5927",-110.58
"5928",-112.53
"5929",-112.43
"5930",-109.04
"5931",-101.05
"5932",-87.34
"5933",-67.52
"5934",-42.67
"5935",-15.55
"5936",10.15
"5937",30.77
"5938",44.03
"5939",49.81
"5940",50
"5941",47.4
"5942",44.38
"5943",41.69
"5944",38.16
"5945",31.56
"5946",19.79
"5947",1.86
"5948",-21.36
"5949",-47.66
"5950",-74.32
"5951",-98.8
"5952",-119.09
"5953",-133.55
"5954",-140.79
"5955",-139.99
"5956",-131.52
"5957",-117.19
"5958",-99.86
"5959",-82.31
"5960",-66.04
"5961",-50.87
"5962",-35.58
"5963",-18.91
"5964",-0.58
"5965",18.28
"5966",35.6
"5967",49.11
"5968",57.39
"5969",60.38
"5970",59.2
"5971",55.59
"5972",51.31
"5973",47.68
"5974",45.25
"5975",43.69
"5976",41.91
"5977",38.63
"5978",33.2
"5979",26
"5980",18.17
"5981",10.89
"5982",4.6
"5983",-1.4
"5984",-8.34
"5985",-17.09
"5986",-27.28
"5987",-37.09
"5988",-43.71
"5989",-44.65
"5990",-38.98
"5991",-27.76
"5992",-13.78
"5993",-0.35
"5994",9.45
"5995",13.52
"5996",10.81
"5997",1.52
"5998",-13.03
"5999",-30.5
"6000",-47.73
"6001",-61.29
"6002",-68
"6003",-65.7
"6004",-53.66
"6005",-32.93
"6006",-6.2
"6007",22.41
"6008",48.05
"6009",66.01
"6010",72.72
"6011",66.74
"6012",49.26
"6013",23.83
"6014",-4.64
"6015",-30.98
"6016",-50.65
"6017",-60.29
"6018",-58.05
"6019",-44.1
"6020",-20.99
"6021",6.51
"6022",32.3
"6023",50.7
"6024",58.25
"6025",54.93
"6026",43.84
"6027",29.73
"6028",16.89
"6029",7.7
"6030",2.27
"6031",-0.89
"6032",-3.78
"6033",-8.1
"6034",-14.99
"6035",-25.26
"6036",-39.1
"6037",-55.83
"6038",-73.54
"6039",-89.23
"6040",-99.62
"6041",-102.17
"6042",-96.09
"6043",-82.73
"6044",-65.23
"6045",-47.37
"6046",-32.35
"6047",-21.9
"6048",-16.1
"6049",-13.87
"6050",-13.76
"6051",-14.56
"6052",-15.55
"6053",-16.54
"6054",-17.55
"6055",-18.75
"6056",-20.21
"6057",-21.76
"6058",-22.97
"6059",-23.36
"6060",-22.55
"6061",-20.48
"6062",-17.59
"6063",-14.82
"6064",-13.49
"6065",-15.15
"6066",-20.94
"6067",-31.21
"6068",-44.96
"6069",-59.59
"6070",-71.09
"6071",-75.08
"6072",-68.4
"6073",-50.54
"6074",-23.88
"6075",7.15
"6076",37.94
"6077",65.45
"6078",88.76
"6079",108.35
"6080",124.47
"6081",136.29
"6082",142.11
"6083",140.94
"6084",133.76
"6085",123.66
"6086",114.52
"6087",108.91
"6088",106.71
"6089",105.32
"6090",101.34
"6091",92.55
"6092",78.94
"6093",62.33
"6094",45.19
"6095",29.5
"6096",16.36
"6097",6.03
"6098",-1.39
"6099",-5.82
"6100",-7.4
"6101",-6.85
"6102",-5.53
"6103",-5.06
"6104",-6.75
"6105",-11.08
"6106",-17.46
"6107",-24.48
"6108",-30.57
"6109",-34.63
"6110",-36.41
"6111",-36.44
"6112",-35.59
"6113",-34.55
"6114",-33.4
"6115",-31.51
"6116",-28.13
"6117",-23.01
"6118",-16.86
"6119",-11.2
"6120",-7.49
"6121",-6.34
"6122",-7.11
"6123",-8.34
"6124",-8.42
"6125",-6.56
"6126",-3.1
"6127",0.62
"6128",3.13
"6129",3.41
"6130",1.32
"6131",-2.54
"6132",-7.02
"6133",-10.42
"6134",-10.89
"6135",-6.84
"6136",2.5
"6137",16.53
"6138",33.36
"6139",50.33
"6140",64.86
"6141",75.33
"6142",81.53
"6143",84.47
"6144",85.76
"6145",86.82
"6146",88.26
"6147",89.88
"6148",90.66
"6149",89.23
"6150",84.47
"6151",76.15
"6152",65.13
"6153",53.24
"6154",42.62
"6155",34.64
"6156",29.65
"6157",26.94
"6158",25.22
"6159",23.04
"6160",18.93
"6161",11.45
"6162",-0.4
"6163",-16.96
"6164",-37.52
"6165",-60.17
"6166",-82.1
"6167",-100.26
"6168",-112.13
"6169",-116.43
"6170",-113.24
"6171",-103.85
"6172",-90.58
"6173",-76.34
"6174",-64.28
"6175",-56.87
"6176",-55.3
"6177",-58.99
"6178",-65.77
"6179",-72.49
"6180",-76.1
"6181",-74.6
"6182",-67.49
"6183",-55.62
"6184",-40.5
"6185",-23.62
"6186",-5.79
"6187",12.78
"6188",32.13
"6189",51.99
"6190",71.63
"6191",90.01
"6192",106.07
"6193",119.24
"6194",129.6
"6195",137.45
"6196",142.82
"6197",144.91
"6198",142.12
"6199",132.93
"6200",116.78
"6201",94.68
"6202",69.19
"6203",43.63
"6204",21.1
"6205",3.9
"6206",-6.79
"6207",-10.63
"6208",-7.84
"6209",0.74
"6210",13.63
"6211",28.85
"6212",44.2
"6213",57.79
"6214",68.74
"6215",77.11
"6216",83.56
"6217",88.75
"6218",92.62
"6219",94.54
"6220",93.69
"6221",89.37
"6222",81.49
"6223",70.49
"6224",57.19
"6225",42.61
"6226",27.84
"6227",13.97
"6228",2.17
"6229",-6.48
"6230",-11.12
"6231",-11.38
"6232",-7.67
"6233",-1.23
"6234",6.07
"6235",12.34
"6236",16.1
"6237",16.83
"6238",14.91
"6239",11.42
"6240",7.87
"6241",5.69
"6242",5.82
"6243",8.35
"6244",12.58
"6245",17.02
"6246",19.96
"6247",20.11
"6248",16.98
"6249",11.01
"6250",3.48
"6251",-4.24
"6252",-11.06
"6253",-16.59
"6254",-20.86
"6255",-24.02
"6256",-26.09
"6257",-27.21
"6258",-28.04
"6259",-29.67
"6260",-33.03
"6261",-37.98
"6262",-42.84
"6263",-44.75
"6264",-40.94
"6265",-30.04
"6266",-12.93
"6267",7.65
"6268",28.38
"6269",46.86
"6270",62.26
"6271",75.11
"6272",86.34
"6273",96.43
"6274",105.35
"6275",113.02
"6276",119.64
"6277",125.79
"6278",132.01
"6279",138.09
"6280",143.02
"6281",145
"6282",142.21
"6283",133.36
"6284",118.31
"6285",97.84
"6286",73.42
"6287",46.66
"6288",18.88
"6289",-8.71
"6290",-35.04
"6291",-59
"6292",-79.51
"6293",-95.66
"6294",-106.94
"6295",-113.33
"6296",-115.31
"6297",-113.69
"6298",-109.28
"6299",-102.81
"6300",-94.93
"6301",-86.14
"6302",-76.95
"6303",-68.03
"6304",-60.08
"6305",-53.87
"6306",-49.98
"6307",-48.28
"6308",-48.03
"6309",-48.07
"6310",-47.56
"6311",-46.8
"6312",-47.72
"6313",-53.11
"6314",-65.1
"6315",-83.49
"6316",-104.58
"6317",-122.42
"6318",-131.22
"6319",-128.24
"6320",-115.33
"6321",-98.46
"6322",-84.98
"6323",-80.67
"6324",-87.72
"6325",-104.63
"6326",-127.61
"6327",-152.52
"6328",-175.8
"6329",-194.7
"6330",-207.03
"6331",-211.39
"6332",-207.88
"6333",-198.65
"6334",-187.28
"6335",-177.31
"6336",-170.23
"6337",-164.44
"6338",-156.18
"6339",-141.51
"6340",-118.84
"6341",-90.24
"6342",-60.84
"6343",-37.06
"6344",-24.28
"6345",-25.51
"6346",-41.15
"6347",-69.64
"6348",-107.96
"6349",-151.82
"6350",-195.67
"6351",-232.89
"6352",-257.21
"6353",-263.97
"6354",-251.55
"6355",-221.54
"6356",-178.18
"6357",-127.18
"6358",-74.92
"6359",-27.67
"6360",8.83
"6361",29.79
"6362",33.06
"6363",20.58
"6364",-0.97
"6365",-21.72
"6366",-31.67
"6367",-24.29
"6368",1.65
"6369",42.51
"6370",91.91
"6371",143.64
"6372",193.1
"6373",237.29
"6374",274.01
"6375",301.14
"6376",316.86
"6377",320.76
"6378",314.64
"6379",302.41
"6380",288.94
"6381",278.19
"6382",271.76
"6383",269.04
"6384",267.73
"6385",264.95
"6386",258.37
"6387",246.81
"6388",230.3
"6389",210.12
"6390",188
"6391",165.5
"6392",143.82
"6393",123.71
"6394",105.44
"6395",88.93
"6396",73.86
"6397",59.87
"6398",46.8
"6399",34.62
"6400",23.47
"6401",13.41
"6402",4.21
"6403",-4.58
"6404",-13.53
"6405",-22.96
"6406",-32.83
"6407",-42.55
"6408",-51.16
"6409",-57.64
"6410",-61.29
"6411",-62.01
"6412",-60.18
"6413",-56.34
"6414",-50.89
"6415",-43.93
"6416",-35.44
"6417",-25.73
"6418",-15.64
"6419",-6.4
"6420",0.82
"6421",5.36
"6422",7.47
"6423",8.1
"6424",8.38
"6425",9.1
"6426",10.36
"6427",11.65
"6428",12.27
"6429",11.81
"6430",10.33
"6431",8.26
"6432",6.14
"6433",4.33
"6434",2.88
"6435",1.75
"6436",0.83
"6437",0.05
"6438",-0.48
"6439",-0.67
"6440",-0.57
"6441",-0.35
"6442",-0.31
"6443",-0.88
"6444",-2.44
"6445",-5.13
"6446",-8.79
"6447",-12.8
"6448",-16.37
"6449",-18.8
"6450",-19.72
"6451",-19.29
"6452",-18.08
"6453",-16.94
"6454",-16.56
"6455",-17.34
"6456",-19.17
"6457",-21.74
"6458",-24.49
"6459",-26.86
"6460",-28.45
"6461",-28.97
"6462",-28.47
"6463",-27.12
"6464",-25.29
"6465",-23.23
"6466",-21.19
"6467",-19.29
"6468",-17.54
"6469",-15.98
"6470",-14.7
"6471",-13.81
"6472",-13.31
"6473",-13.07
"6474",-12.82
"6475",-12.31
"6476",-11.41
"6477",-10.16
"6478",-8.65
"6479",-6.93
"6480",-5.04
"6481",-2.97
"6482",-0.86
"6483",1.03
"6484",2.36
"6485",2.76
"6486",2.15
"6487",0.7
"6488",-0.98
"6489",-2.32
"6490",-2.79
"6491",-2.2
"6492",-0.54
"6493",1.89
"6494",4.61
"6495",7.07
"6496",8.63
"6497",8.91
"6498",7.92
"6499",6.2
"6500",4.59
"6501",4.03
"6502",4.95
"6503",7.22
"6504",10.13
"6505",12.76
"6506",14.34
"6507",14.59
"6508",13.63
"6509",11.71
"6510",9.17
"6511",6.24
"6512",3.19
"6513",0.3
"6514",-2.13
"6515",-3.82
"6516",-4.63
"6517",-4.67
"6518",-4.31
"6519",-4.17
"6520",-4.78
"6521",-6.43
"6522",-9.11
"6523",-12.5
"6524",-15.97
"6525",-18.87
"6526",-20.78
"6527",-21.63
"6528",-21.71
"6529",-21.4
"6530",-20.94
"6531",-20.39
"6532",-19.7
"6533",-18.6
"6534",-17.07
"6535",-15.36
"6536",-13.86
"6537",-13.06
"6538",-13.22
"6539",-14.31
"6540",-16
"6541",-17.85
"6542",-19.22
"6543",-19.55
"6544",-18.2
"6545",-14.56
"6546",-8.2
"6547",0.86
"6548",11.99
"6549",23.76
"6550",34.43
"6551",42.42
"6552",46.7
"6553",47.14
"6554",44.34
"6555",39.11
"6556",32.22
"6557",24.28
"6558",15.83
"6559",7.56
"6560",0.41
"6561",-4.7
"6562",-7.15
"6563",-6.91
"6564",-4.73
"6565",-1.78
"6566",0.77
"6567",2.15
"6568",2.16
"6569",1.14
"6570",-0.47
"6571",-2.36
"6572",-4.48
"6573",-7.1
"6574",-10.49
"6575",-14.68
"6576",-19.16
"6577",-23.09
"6578",-25.53
"6579",-25.9
"6580",-24.14
"6581",-20.78
"6582",-16.61
"6583",-12.31
"6584",-8.16
"6585",-3.86
"6586",1.1
"6587",7.18
"6588",14.33
"6589",22.06
"6590",29.48
"6591",35.73
"6592",40.12
"6593",42.29
"6594",42.22
"6595",39.95
"6596",35.82
"6597",30.37
"6598",24.55
"6599",19.47
"6600",16.12
"6601",14.91
"6602",15.41
"6603",16.54
"6604",16.95
"6605",15.67
"6606",12.5
"6607",7.88
"6608",2.72
"6609",-2.13
"6610",-6.35
"6611",-10.04
"6612",-13.52
"6613",-17.1
"6614",-20.73
"6615",-24.06
"6616",-26.6
"6617",-28.07
"6618",-28.5
"6619",-28.29
"6620",-27.98
"6621",-27.89
"6622",-27.86
"6623",-27.18
"6624",-24.98
"6625",-20.67
"6626",-14.28
"6627",-6.48
"6628",1.7
"6629",9.4
"6630",16.25
"6631",22.47
"6632",28.49
"6633",34.32
"6634",39.49
"6635",43.09
"6636",44.35
"6637",43.15
"6638",40.02
"6639",35.71
"6640",30.77
"6641",25.26
"6642",18.78
"6643",11.04
"6644",2.14
"6645",-7.35
"6646",-16.56
"6647",-24.8
"6648",-31.61
"6649",-36.87
"6650",-40.56
"6651",-42.65
"6652",-43.19
"6653",-42.54
"6654",-41.25
"6655",-39.89
"6656",-38.9
"6657",-38.21
"6658",-37.55
"6659",-36.56
"6660",-35.06
"6661",-32.99
"6662",-30.28
"6663",-26.7
"6664",-21.82
"6665",-15.33
"6666",-7.02
"6667",2.97
"6668",14.16
"6669",25.79
"6670",37.05
"6671",47.09
"6672",55.14
"6673",60.65
"6674",63.31
"6675",63.14
"6676",60.59
"6677",56.27
"6678",50.91
"6679",45.2
"6680",39.75
"6681",34.91
"6682",30.6
"6683",26.42
"6684",21.82
"6685",16.45
"6686",10.31
"6687",3.78
"6688",-2.83
"6689",-9.42
"6690",-16.32
"6691",-24.09
"6692",-33.12
"6693",-43.16
"6694",-53.11
"6695",-61.3
"6696",-66.05
"6697",-66.32
"6698",-62.01
"6699",-54.02
"6700",-43.93
"6701",-33.79
"6702",-25.6
"6703",-20.61
"6704",-18.95
"6705",-19.66
"6706",-20.92
"6707",-20.54
"6708",-16.77
"6709",-8.72
"6710",3.29
"6711",17.9
"6712",33.37
"6713",48.23
"6714",61.74
"6715",73.99
"6716",85.69
"6717",97.45
"6718",109.44
"6719",121.04
"6720",130.86
"6721",137.24
"6722",138.73
"6723",134.8
"6724",126.03
"6725",113.95
"6726",100.64
"6727",88.6
"6728",80.33
"6729",78.05
"6730",83.52
"6731",97.45
"6732",118.97
"6733",145.34
"6734",171.9
"6735",193.33
"6736",205.92
"6737",209.18
"6738",205.82
"6739",200.23
"6740",195.82
"6741",193.1
"6742",189.59
"6743",181.1
"6744",163.77
"6745",135.81
"6746",97.74
"6747",51.49
"6748",-0.62
"6749",-56.62
"6750",-114.36
"6751",-170.96
"6752",-222.6
"6753",-265.31
"6754",-295.75
"6755",-311.98
"6756",-313.58
"6757",-301.24
"6758",-276.81
"6759",-242.58
"6760",-201.08
"6761",-154.92
"6762",-107.26
"6763",-61.01
"6764",-18.61
"6765",18.28
"6766",48.94
"6767",72.6
"6768",88.96
"6769",98.05
"6770",100.09
"6771",94.2
"6772",80.29
"6773",59.56
"6774",34.62
"6775",9.23
"6776",-14.43
"6777",-35.17
"6778",-52.89
"6779",-68.49
"6780",-85.09
"6781",-104.72
"6782",-127.12
"6783",-149.91
"6784",-169.35
"6785",-184.25
"6786",-194.34
"6787",-199.68
"6788",-200.63
"6789",-199.93
"6790",-199.56
"6791",-199.83
"6792",-199.58
"6793",-196.46
"6794",-191.18
"6795",-184.74
"6796",-177.64
"6797",-154.64
"6798",-109.04
"6799",-46.12
"6800",19.66
"6801",66.76
"6802",95.12
"6803",107.09
"6804",104.32
"6805",90.06
"6806",66.16
"6807",32.63
"6808",-8.92
"6809",-54.4
"6810",-97.83
"6811",-132.2
"6812",-154.58
"6813",-164.26
"6814",-161.84
"6815",-148.74
"6816",-128.09
"6817",-101.8
"6818",-70.18
"6819",-33.02
"6820",9.47
"6821",53.01
"6822",92.13
"6823",122.11
"6824",140.09
"6825",144.41
"6826",135.61
"6827",115.9
"6828",88.44
"6829",57.33
"6830",25.63
"6831",-3.33
"6832",-26.33
"6833",-41.53
"6834",-49.67
"6835",-53.35
"6836",-55.66
"6837",-58.57
"6838",-61.64
"6839",-62.81
"6840",-59.02
"6841",-47.98
"6842",-30.05
"6843",-8.85
"6844",10.21
"6845",22.12
"6846",24.18
"6847",16.86
"6848",2.73
"6849",-14.82
"6850",-32.78
"6851",-49.44
"6852",-63.96
"6853",-75.78
"6854",-84.2
"6855",-88.32
"6856",-87.7
"6857",-82.96
"6858",-76
"6859",-69.39
"6860",-65.61
"6861",-66.01
"6862",-70.3
"6863",-76.95
"6864",-83.49
"6865",-87.61
"6866",-87.8
"6867",-83.66
"6868",-75.7
"6869",-64.84
"6870",-51.99
"6871",-37.77
"6872",-22.74
"6873",-7.25
"6874",8.37
"6875",23.81
"6876",38.91
"6877",53.58
"6878",68.03
"6879",82.73
"6880",98.5
"6881",116.13
"6882",136.14
"6883",158.02
"6884",179.88
"6885",198.74
"6886",211.15
"6887",214.74
"6888",208.94
"6889",195.61
"6890",178.29
"6891",161.18
"6892",147.53
"6893",139
"6894",135.53
"6895",135.74
"6896",137.55
"6897",138.64
"6898",136.82
"6899",130.11
"6900",117.19
"6901",97.32
"6902",70.43
"6903",37.19
"6904",-1.09
"6905",-42.24
"6906",-83.59
"6907",-121.71
"6908",-153.28
"6909",-175.24
"6910",-185.84
"6911",-185.51
"6912",-176.65
"6913",-163.88
"6914",-152.08
"6915",-144.8
"6916",-142.42
"6917",-141.7
"6918",-137.45
"6919",-125.19
"6920",-103.64
"6921",-75.53
"6922",-46.22
"6923",-20.88
"6924",-2.52
"6925",8.91
"6926",15.1
"6927",18.08
"6928",19.29
"6929",20.1
"6930",22.83
"6931",30.59
"6932",46.35
"6933",70.92
"6934",101.98
"6935",134.51
"6936",162.99
"6937",183.63
"6938",195.15
"6939",198.73
"6940",195.98
"6941",188.3
"6942",176.88
"6943",163.07
"6944",149.55
"6945",139.49
"6946",135.77
"6947",139.16
"6948",147.55
"6949",156.22
"6950",160.03
"6951",155.13
"6952",140.74
"6953",119.33
"6954",95.4
"6955",74.02
"6956",59.03
"6957",52.16
"6958",52.65
"6959",57.87
"6960",64.1
"6961",67.42
"6962",64.6
"6963",53.22
"6964",31.74
"6965",-1.05
"6966",-45.88
"6967",-102.09
"6968",-166.58
"6969",-232.24
"6970",-288.52
"6971",-323.26
"6972",-326.39
"6973",-293.17
"6974",-226.34
"6975",-136.06
"6976",-37.23
"6977",53.72
"6978",122.52
"6979",159.79
"6980",162.76
"6981",135.14
"6982",86.19
"6983",28.2
"6984",-26.54
"6985",-68.18
"6986",-91.47
"6987",-95.98
"6988",-84.84
"6989",-62.79
"6990",-34.78
"6991",-4.96
"6992",22.83
"6993",44.57
"6994",55.88
"6995",52.7
"6996",32.59
"6997",-3.17
"6998",-48.66
"6999",-93.88
"7000",-127.58
"7001",-140.54
"7002",-128.35
"7003",-92.32
"7004",-38.72
"7005",23.27
"7006",83.67
"7007",132.85
"7008",162.37
"7009",165.93
"7010",140.71
"7011",88.75
"7012",17.76
"7013",-60.47
"7014",-132.65
"7015",-187.62
"7016",-218.85
"7017",-225.04
"7018",-209.02
"7019",-176.39
"7020",-133.93
"7021",-88.11
"7022",-44.39
"7023",-5.91
"7024",27.07
"7025",57
"7026",87.56
"7027",121.33
"7028",157.25
"7029",189.3
"7030",208.01
"7031",203.9
"7032",171.86
"7033",114.17
"7034",40.66
"7035",-34.18
"7036",-96.17
"7037",-135.8
"7038",-150.55
"7039",-143.96
"7040",-122.99
"7041",-94.58
"7042",-63.82
"7043",-33.91
"7044",-6.81
"7045",15.58
"7046",31.45
"7047",39.65
"7048",40.59
"7049",36.51
"7050",31.19
"7051",28.54
"7052",31.09
"7053",39.46
"7054",52.13
"7055",66.46
"7056",79.93
"7057",90.99
"7058",99.31
"7059",105.3
"7060",109.38
"7061",111.34
"7062",110.35
"7063",105.34
"7064",95.44
"7065",80.87
"7066",62.84
"7067",43.64
"7068",25.93
"7069",12.36
"7070",4.49
"7071",2.22
"7072",3.45
"7073",4.9
"7074",3.38
"7075",-3.13
"7076",-14.84
"7077",-30.06
"7078",-45.74
"7079",-58.67
"7080",-66.57
"7081",-68.73
"7082",-66.05
"7083",-60.28
"7084",-53.34
"7085",-46.45
"7086",-39.62
"7087",-31.96
"7088",-22.4
"7089",-10.51
"7090",2.76
"7091",15.3
"7092",24.78
"7093",29.31
"7094",28.29
"7095",22.57
"7096",14.05
"7097",5.24
"7098",-1.77
"7099",-5.86
"7100",-6.97
"7101",-5.51
"7102",-2.13
"7103",2.76
"7104",8.85
"7105",16.13
"7106",25.12
"7107",36.36
"7108",50.4
"7109",67.95
"7110",90.05
"7111",116.95
"7112",147.38
"7113",178.09
"7114",204.42
"7115",222.16
"7116",227.84
"7117",220.04
"7118",200.05
"7119",172.2
"7120",141.6
"7121",112.5
"7122",87.22
"7123",65.8
"7124",47.72
"7125",31.04
"7126",13.54
"7127",-6.46
"7128",-28.85
"7129",-52.86
"7130",-77.28
"7131",-100.51
"7132",-125.66
"7133",-149.19
"7134",-164.28
"7135",-163.88
"7136",-149.52
"7137",-124.02
"7138",-90.83
"7139",-53.28
"7140",-14.64
"7141",22.29
"7142",55.83
"7143",83.59
"7144",102.58
"7145",109.81
"7146",104.18
"7147",86.25
"7148",58.36
"7149",24.4
"7150",-10.83
"7151",-41.98
"7152",-65.43
"7153",-79.77
"7154",-85.59
"7155",-84.19
"7156",-77.76
"7157",-68.8
"7158",-59.57
"7159",-51.62
"7160",-45.07
"7161",-39.64
"7162",-34.99
"7163",-30.91
"7164",-27
"7165",-23.3
"7166",-20.15
"7167",-18.15
"7168",-17.94
"7169",-19.9
"7170",-24.24
"7171",-30.99
"7172",-39.76
"7173",-49.62
"7174",-59.59
"7175",-69.04
"7176",-77.85
"7177",-86.41
"7178",-95.32
"7179",-105.05
"7180",-115.61
"7181",-126.05
"7182",-134.33
"7183",-137.74
"7184",-133.66
"7185",-120.25
"7186",-97.22
"7187",-66.07
"7188",-29.61
"7189",8.8
"7190",46.11
"7191",80.17
"7192",109.65
"7193",133.77
"7194",151.98
"7195",164.03
"7196",169.99
"7197",170.58
"7198",166.9
"7199",160.25
"7200",151.97
"7201",143.15
"7202",134.72
"7203",127.17
"7204",120.4
"7205",113.45
"7206",104.73
"7207",92.49
"7208",75.61
"7209",54.1
"7210",28.89
"7211",1.47
"7212",-27.02
"7213",-55.9
"7214",-84.66
"7215",-112.43
"7216",-137.6
"7217",-157.91
"7218",-170.97
"7219",-175.2
"7220",-170.16
"7221",-156.74
"7222",-136.89
"7223",-113.24
"7224",-88.58
"7225",-65.55
"7226",-46.15
"7227",-31.5
"7228",-22.02
"7229",-17.5
"7230",-17.34
"7231",-20.65
"7232",-26.5
"7233",-33.79
"7234",-41.29
"7235",-47.39
"7236",-50.42
"7237",-49.04
"7238",-42.55
"7239",-31.49
"7240",-17.29
"7241",-1.92
"7242",12.72
"7243",25.49
"7244",36.1
"7245",44.34
"7246",49.93
"7247",52.39
"7248",51.5
"7249",47.88
"7250",42.91
"7251",37.79
"7252",32.47
"7253",25.48
"7254",14.8
"7255",-0.67
"7256",-19.56
"7257",-38.11
"7258",-51.67
"7259",-56.71
"7260",-52.9
"7261",-43.11
"7262",-32.31
"7263",-25.16
"7264",-24.42
"7265",-30.21
"7266",-40.57
"7267",-52.62
"7268",-63.66
"7269",-72.16
"7270",-77.61
"7271",-80.59
"7272",-81.78
"7273",-81.41
"7274",-79.15
"7275",-74.37
"7276",-66.69
"7277",-56.53
"7278",-45.04
"7279",-33.76
"7280",-24.31
"7281",-17.89
"7282",-15.07
"7283",-15.75
"7284",-19.36
"7285",-24.89
"7286",-30.85
"7287",-35.4
"7288",-36.52
"7289",-32.59
"7290",-22.96
"7291",-8.18
"7292",9.96
"7293",28.86
"7294",45.65
"7295",57.83
"7296",63.63
"7297",62.32
"7298",54.28
"7299",40.84
"7300",24.09
"7301",6.2
"7302",-10.84
"7303",-25.72
"7304",-37.64
"7305",-46.42
"7306",-52.2
"7307",-55.18
"7308",-55.58
"7309",-53.63
"7310",-49.62
"7311",-43.94
"7312",-37.07
"7313",-29.6
"7314",-22.31
"7315",-16.19
"7316",-12.22
"7317",-11.11
"7318",-13.06
"7319",-17.54
"7320",-23.48
"7321",-29.52
"7322",-34.58
"7323",-38.04
"7324",-39.89
"7325",-40.38
"7326",-39.64
"7327",-37.38
"7328",-33.11
"7329",-26.56
"7330",-18.26
"7331",-9.52
"7332",-1.76
"7333",4.23
"7334",8.93
"7335",13.81
"7336",20.46
"7337",29.66
"7338",41.02
"7339",53.41
"7340",65.73
"7341",77.43
"7342",88.44
"7343",98.19
"7344",105.13
"7345",106.62
"7346",100.08
"7347",84.31
"7348",60.5
"7349",32.1
"7350",3.73
"7351",-20.2
"7352",-36.94
"7353",-45.55
"7354",-46.76
"7355",-42.32
"7356",-34.44
"7357",-25.36
"7358",-17.21
"7359",-11.69
"7360",-9.99
"7361",-12.46
"7362",-18.34
"7363",-26
"7364",-33.21
"7365",-37.83
"7366",-38.53
"7367",-35.27
"7368",-29.15
"7369",-22.12
"7370",-16.31
"7371",-13.12
"7372",-12.94
"7373",-15.17
"7374",-18.53
"7375",-21.72
"7376",-23.95
"7377",-24.96
"7378",-24.97
"7379",-24.29
"7380",-23.03
"7381",-20.89
"7382",-17.26
"7383",-11.33
"7384",-2.53
"7385",9.12
"7386",22.87
"7387",37.17
"7388",50.11
"7389",59.84
"7390",65.14
"7391",65.7
"7392",62.27
"7393",56.46
"7394",50.58
"7395",47.19
"7396",48.61
"7397",56.04
"7398",68.9
"7399",84.5
"7400",98.71
"7401",107.51
"7402",108.61
"7403",102.49
"7404",92.14
"7405",81.79
"7406",74.74
"7407",72.23
"7408",73.19
"7409",75.28
"7410",76.34
"7411",75.48
"7412",73.13
"7413",70.34
"7414",67.69
"7415",64.61
"7416",59.65
"7417",51.19
"7418",38.64
"7419",22.94
"7420",6.17
"7421",-9.53
"7422",-22.91
"7423",-34.16
"7424",-44.26
"7425",-53.92
"7426",-62.83
"7427",-69.82
"7428",-73.69
"7429",-74.25
"7430",-72.74
"7431",-70.99
"7432",-70.43
"7433",-71.17
"7434",-71.98
"7435",-71.28
"7436",-68.41
"7437",-64.15
"7438",-60.35
"7439",-58.82
"7440",-60.08
"7441",-63.08
"7442",-65.63
"7443",-65.83
"7444",-62.92
"7445",-57.81
"7446",-52.44
"7447",-48.64
"7448",-47.2
"7449",-47.58
"7450",-48.3
"7451",-47.78
"7452",-45.22
"7453",-41.01
"7454",-36.35
"7455",-32.75
"7456",-31.16
"7457",-31.53
"7458",-32.89
"7459",-33.88
"7460",-33.35
"7461",-30.89
"7462",-26.98
"7463",-22.49
"7464",-18.25
"7465",-14.56
"7466",-11.15
"7467",-7.58
"7468",-3.55
"7469",0.77
"7470",4.96
"7471",8.59
"7472",11.5
"7473",13.7
"7474",15.26
"7475",15.96
"7476",15.24
"7477",12.49
"7478",7.44
"7479",0.54
"7480",-6.78
"7481",-12.5
"7482",-14.56
"7483",-11.51
"7484",-2.88
"7485",10.47
"7486",26.8
"7487",43.87
"7488",59.54
"7489",72.2
"7490",80.82
"7491",84.97
"7492",84.74
"7493",80.67
"7494",73.8
"7495",65.57
"7496",57.43
"7497",50.58
"7498",45.51
"7499",41.72
"7500",38.22
"7501",33.92
"7502",28.31
"7503",21.69
"7504",15.06
"7505",9.54
"7506",5.9
"7507",4.23
"7508",3.84
"7509",3.7
"7510",2.77
"7511",0.54
"7512",-2.97
"7513",-7.36
"7514",-12.19
"7515",-17.23
"7516",-22.48
"7517",-27.98
"7518",-33.51
"7519",-38.32
"7520",-41.26
"7521",-40.81
"7522",-35.82
"7523",-25.88
"7524",-11.64
"7525",5.35
"7526",23.07
"7527",39.58
"7528",53.43
"7529",63.81
"7530",70.64
"7531",74.19
"7532",75.02
"7533",73.77
"7534",71.15
"7535",67.96
"7536",65.1
"7537",63.48
"7538",63.59
"7539",65.58
"7540",68.93
"7541",72.76
"7542",75.7
"7543",76.23
"7544",72.82
"7545",64.38
"7546",50.36
"7547",30.91
"7548",7.09
"7549",-19.53
"7550",-47.15
"7551",-74.13
"7552",-99.22
"7553",-121.48
"7554",-139.94
"7555",-153.47
"7556",-161.03
"7557",-161.95
"7558",-156.5
"7559",-146.12
"7560",-133.11
"7561",-119.93
"7562",-108.23
"7563",-98.36
"7564",-89.19
"7565",-78.93
"7566",-65.95
"7567",-49.75
"7568",-31.11
"7569",-11.82
"7570",6.04
"7571",20.92
"7572",32.15
"7573",39.99
"7574",45
"7575",47.69
"7576",48.05
"7577",45.9
"7578",41.11
"7579",34.17
"7580",26.26
"7581",18.86
"7582",13.25
"7583",9.97
"7584",8.62
"7585",8.01
"7586",6.86
"7587",4.28
"7588",0.12
"7589",-4.97
"7590",-9.87
"7591",-13.35
"7592",-14.42
"7593",-12.65
"7594",-8.27
"7595",-2.24
"7596",3.89
"7597",8.17
"7598",8.76
"7599",4.43
"7600",-4.75
"7601",-17.38
"7602",-30.78
"7603",-41.82
"7604",-47.88
"7605",-47.69
"7606",-41.63
"7607",-31.39
"7608",-19.4
"7609",-7.77
"7610",1.89
"7611",8.66
"7612",12.13
"7613",12.11
"7614",8.63
"7615",2.21
"7616",-6.07
"7617",-14.62
"7618",-21.66
"7619",-25.77
"7620",-26.35
"7621",-23.81
"7622",-19.46
"7623",-14.92
"7624",-11.68
"7625",-10.6
"7626",-11.77
"7627",-14.56
"7628",-18.09
"7629",-21.52
"7630",-24.47
"7631",-27.19
"7632",-30.26
"7633",-34.41
"7634",-40.12
"7635",-47.26
"7636",-55.31
"7637",-63.53
"7638",-71.21
"7639",-78
"7640",-83.68
"7641",-88.14
"7642",-91.25
"7643",-92.95
"7644",-93.19
"7645",-92.23
"7646",-90.68
"7647",-89.12
"7648",-87.98
"7649",-87.06
"7650",-85.82
"7651",-83.74
"7652",-80.71
"7653",-77.3
"7654",-74.33
"7655",-72.02
"7656",-69.21
"7657",-63.29
"7658",-50.87
"7659",-29.3
"7660",1.86
"7661",40.13
"7662",80.53
"7663",117.01
"7664",144.22
"7665",159.13
"7666",161.36
"7667",152.89
"7668",137.23
"7669",118.15
"7670",99.12
"7671",82.74
"7672",70.6
"7673",63.3
"7674",60.45
"7675",60.57
"7676",61.57
"7677",61.11
"7678",57.39
"7679",49.84
"7680",39.35
"7681",27.95
"7682",18.08
"7683",11.61
"7684",9.21
"7685",10.43
"7686",13.89
"7687",17.87
"7688",20.94
"7689",22.19
"7690",21.56
"7691",19.65
"7692",17.39
"7693",15.68
"7694",15.06
"7695",15.6
"7696",16.94
"7697",18.59
"7698",20.14
"7699",21.39
"7700",22.22
"7701",22.48
"7702",21.86
"7703",20.11
"7704",17.13
"7705",13.25
"7706",9.16
"7707",5.63
"7708",3.31
"7709",2.36
"7710",2.57
"7711",3.4
"7712",4.31
"7713",4.79
"7714",4.66
"7715",3.83
"7716",2.29
"7717",0.12
"7718",-2.4
"7719",-4.73
"7720",-6.04
"7721",-5.51
"7722",-2.65
"7723",2.6
"7724",9.68
"7725",17.56
"7726",25.18
"7727",31.59
"7728",36.26
"7729",39.06
"7730",39.98
"7731",39.1
"7732",36.51
"7733",32.45
"7734",27.17
"7735",21.25
"7736",15.22
"7737",9.67
"7738",5.04
"7739",1.49
"7740",-0.93
"7741",-2.38
"7742",-2.95
"7743",-2.92
"7744",-2.45
"7745",-1.82
"7746",-1.21
"7747",-0.88
"7748",-1.18
"7749",-2.55
"7750",-5.32
"7751",-9.64
"7752",-15.52
"7753",-22.66
"7754",-30.69
"7755",-39.01
"7756",-47.06
"7757",-54.42
"7758",-60.59
"7759",-64.83
"7760",-66.27
"7761",-64.48
"7762",-59.5
"7763",-51.76
"7764",-41.87
"7765",-30.68
"7766",-19.48
"7767",-9.21
"7768",-0.45
"7769",6.96
"7770",12.84
"7771",17.01
"7772",19.27
"7773",19.52
"7774",17.5
"7775",12.3
"7776",3.75
"7777",-7.31
"7778",-18.66
"7779",-28.56
"7780",-35.42
"7781",-38.18
"7782",-36.19
"7783",-29.4
"7784",-19.07
"7785",-6.25
"7786",8.42
"7787",25.04
"7788",42.42
"7789",59.2
"7790",74.39
"7791",87.83
"7792",105.25
"7793",127.63
"7794",150.71
"7795",163.53
"7796",162.44
"7797",145.88
"7798",115.29
"7799",74.03
"7800",27.81
"7801",-16.81
"7802",-55.22
"7803",-84.71
"7804",-104.84
"7805",-116.08
"7806",-120.6
"7807",-120.43
"7808",-116.79
"7809",-110.19
"7810",-101
"7811",-90.77
"7812",-80.93
"7813",-72.48
"7814",-65.34
"7815",-59.82
"7816",-56.04
"7817",-54.06
"7818",-53.65
"7819",-54.53
"7820",-56.75
"7821",-59.99
"7822",-63.36
"7823",-65.45
"7824",-65.76
"7825",-64.49
"7826",-62.57
"7827",-61.21
"7828",-61.48
"7829",-63.93
"7830",-67.79
"7831",-70.94
"7832",-70.28
"7833",-63.36
"7834",-49.16
"7835",-28.71
"7836",-4.95
"7837",17.86
"7838",35.54
"7839",45.25
"7840",46.24
"7841",39.95
"7842",29.1
"7843",16.88
"7844",6.03
"7845",-1.63
"7846",-5.31
"7847",-5.11
"7848",-1.68
"7849",3.86
"7850",10.14
"7851",15.76
"7852",19.65
"7853",21.24
"7854",20.58
"7855",18.27
"7856",15.03
"7857",11.44
"7858",7.63
"7859",3.45
"7860",-1.45
"7861",-7.28
"7862",-13.96
"7863",-21.18
"7864",-28.2
"7865",-34.16
"7866",-37.9
"7867",-38.18
"7868",-33.88
"7869",-24.58
"7870",-10.86
"7871",5.84
"7872",23.51
"7873",40.53
"7874",55.87
"7875",69.01
"7876",79.34
"7877",85.87
"7878",87.16
"7879",81.94
"7880",70.21
"7881",53.55
"7882",35.04
"7883",18.24
"7884",6.03
"7885",-0.17
"7886",-0.62
"7887",3.24
"7888",9.28
"7889",15.41
"7890",19.83
"7891",21.2
"7892",18.68
"7893",12.1
"7894",1.74
"7895",-11.62
"7896",-26.68
"7897",-41.96
"7898",-55.95
"7899",-67.44
"7900",-75.79
"7901",-81.03
"7902",-83.4
"7903",-82.9
"7904",-79.01
"7905",-70.58
"7906",-56.44
"7907",-36.04
"7908",-10.02
"7909",19.68
"7910",50.31
"7911",78.98
"7912",103.33
"7913",121.8
"7914",133.58
"7915",138.58
"7916",137.33
"7917",131.06
"7918",121.67
"7919",111.64
"7920",103.49
"7921",99.21
"7922",99.8
"7923",105.07
"7924",113.63
"7925",123.18
"7926",130.97
"7927",134.34
"7928",131.24
"7929",120.74
"7930",103.08
"7931",79.59
"7932",52.2
"7933",22.93
"7934",-6.28
"7935",-33.88
"7936",-58.62
"7937",-79.76
"7938",-97.01
"7939",-110.6
"7940",-120.84
"7941",-127.45
"7942",-129.26
"7943",-124.15
"7944",-110.14
"7945",-86.51
"7946",-54.76
"7947",-18.5
"7948",17.63
"7949",49.46
"7950",74.55
"7951",92.51
"7952",104.28
"7953",111.17
"7954",114.05
"7955",113.25
"7956",108.97
"7957",101.7
"7958",92.36
"7959",82.08
"7960",71.78
"7961",61.69
"7962",51.4
"7963",40.14
"7964",27.29
"7965",12.6
"7966",-3.44
"7967",-19.9
"7968",-35.67
"7969",-49.83
"7970",-61.85
"7971",-71.65
"7972",-79.53
"7973",-85.76
"7974",-90.54
"7975",-93.6
"7976",-94.25
"7977",-91.64
"7978",-84.93
"7979",-73.86
"7980",-58.88
"7981",-41.11
"7982",-22.11
"7983",-3.36
"7984",14.14
"7985",29.94
"7986",43.99
"7987",56.29
"7988",66.53
"7989",74.24
"7990",78.9
"7991",80.25
"7992",78.69
"7993",75.13
"7994",70.65
"7995",66.08
"7996",61.74
"7997",57.14
"7998",51.5
"7999",44.08
"8000",34.59
"8001",23.25
"8002",10.76
"8003",-2.1
"8004",-14.87
"8005",-27.29
"8006",-39.36
"8007",-51.01
"8008",-61.95
"8009",-71.82
"8010",-80.29
"8011",-87.13
"8012",-92.29
"8013",-95.56
"8014",-96.35
"8015",-93.71
"8016",-86.67
"8017",-74.72
"8018",-58.39
"8019",-39.12
"8020",-18.98
"8021",0.09
"8022",16.78
"8023",30.76
"8024",42.45
"8025",52.6
"8026",61.9
"8027",70.64
"8028",78.75
"8029",85.72
"8030",90.82
"8031",93.26
"8032",92.47
"8033",88.3
"8034",81.21
"8035",72.12
"8036",62.13
"8037",52.31
"8038",43.32
"8039",35.36
"8040",28.37
"8041",22.23
"8042",16.82
"8043",12.15
"8044",8.19
"8045",4.83
"8046",1.88
"8047",-0.97
"8048",-4.13
"8049",-7.97
"8050",-12.85
"8051",-18.91
"8052",-26
"8053",-33.5
"8054",-40.32
"8055",-45.24
"8056",-47.09
"8057",-45.1
"8058",-39.14
"8059",-29.78
"8060",-18.08
"8061",-5.41
"8062",6.85
"8063",17.54
"8064",25.81
"8065",31.28
"8066",34.12
"8067",34.89
"8068",34.33
"8069",33.27
"8070",32.26
"8071",31.5
"8072",30.89
"8073",30.12
"8074",28.91
"8075",27.13
"8076",24.82
"8077",22.2
"8078",19.6
"8079",17.28
"8080",15.34
"8081",13.64
"8082",11.8
"8083",9.48
"8084",6.44
"8085",2.62
"8086",-1.75
"8087",-6.35
"8088",-10.99
"8089",-15.6
"8090",-20.38
"8091",-25.67
"8092",-31.79
"8093",-38.97
"8094",-47.27
"8095",-56.54
"8096",-66.3
"8097",-75.86
"8098",-84.07
"8099",-89.63
"8100",-91.25
"8101",-88.06
"8102",-79.91
"8103",-67.54
"8104",-52.42
"8105",-36.33
"8106",-20.89
"8107",-7.1
"8108",4.52
"8109",13.91
"8110",21.09
"8111",26.06
"8112",28.87
"8113",29.61
"8114",28.64
"8115",26.6
"8116",24.37
"8117",22.77
"8118",22.26
"8119",22.82
"8120",23.83
"8121",24.46
"8122",23.93
"8123",21.92
"8124",18.62
"8125",14.55
"8126",10.18
"8127",5.63
"8128",0.72
"8129",-4.95
"8130",-11.44
"8131",-18.34
"8132",-24.71
"8133",-29.63
"8134",-32.64
"8135",-34
"8136",-34.67
"8137",-35.96
"8138",-38.91
"8139",-43.95
"8140",-50.57
"8141",-57.39
"8142",-62.67
"8143",-64.62
"8144",-61.86
"8145",-53.89
"8146",-41.21
"8147",-25.24
"8148",-7.93
"8149",8.83
"8150",23.67
"8151",35.9
"8152",45.5
"8153",52.68
"8154",57.64
"8155",60.5
"8156",61.36
"8157",60.54
"8158",58.74
"8159",56.76
"8160",55.33
"8161",54.8
"8162",55
"8163",55.4
"8164",55.55
"8165",55.21
"8166",54.51
"8167",53.82
"8168",53.28
"8169",52.76
"8170",51.59
"8171",48.93
"8172",44.11
"8173",36.95
"8174",27.76
"8175",17.31
"8176",6.55
"8177",-3.76
"8178",-12.99
"8179",-20.8
"8180",-27.08
"8181",-31.97
"8182",-35.83
"8183",-39.47
"8184",-43.88
"8185",-49.74
"8186",-57.12
"8187",-64.86
"8188",-70.9
"8189",-72.98
"8190",-69.44
"8191",-59.99
"8192",-45.89
"8193",-29.46
"8194",-13.28
"8195",0.65
"8196",11.39
"8197",18.94
"8198",23.9
"8199",27.21
"8200",29.65
"8201",31.89
"8202",34.42
"8203",37.27
"8204",39.97
"8205",41.63
"8206",41.32
"8207",38.57
"8208",33.92
"8209",28.64
"8210",24.39
"8211",22.48
"8212",23.18
"8213",25.68
"8214",28.55
"8215",30.38
"8216",30.21
"8217",27.85
"8218",23.36
"8219",16.83
"8220",8.22
"8221",-2.68
"8222",-15.91
"8223",-31.01
"8224",-46.88
"8225",-62.16
"8226",-75.54
"8227",-86.6
"8228",-96.12
"8229",-105.87
"8230",-118.02
"8231",-134.2
"8232",-154.74
"8233",-178.42
"8234",-202.7
"8235",-224.19
"8236",-239.45
"8237",-245.61
"8238",-241.05
"8239",-225.86
"8240",-202.06
"8241",-173.29
"8242",-143.8
"8243",-117
"8244",-94.23
"8245",-74.44
"8246",-54.78
"8247",-32.14
"8248",-4.65
"8249",27.35
"8250",61.26
"8251",92.93
"8252",117.89
"8253",132.4
"8254",134.45
"8255",124.02
"8256",102.95
"8257",74.44
"8258",42.27
"8259",10.3
"8260",-18.2
"8261",-40.6
"8262",-55.17
"8263",-61.12
"8264",-58.73
"8265",-49.28
"8266",-34.83
"8267",-17.75
"8268",-0.11
"8269",16.75
"8270",32.07
"8271",45.55
"8272",56.91
"8273",65.62
"8274",71.02
"8275",72.51
"8276",70.17
"8277",64.91
"8278",58.68
"8279",53.72
"8280",51.97
"8281",54.3
"8282",60.23
"8283",68.28
"8284",76.62
"8285",83.74
"8286",88.92
"8287",92.22
"8288",94.01
"8289",94.65
"8290",94.22
"8291",92.45
"8292",89.07
"8293",84.1
"8294",77.98
"8295",71.41
"8296",65.14
"8297",59.47
"8298",54.09
"8299",48.14
"8300",40.51
"8301",30.47
"8302",17.97
"8303",3.68
"8304",-11.43
"8305",-26.32
"8306",-40.32
"8307",-53.16
"8308",-64.7
"8309",-74.65
"8310",-82.15
"8311",-86.09
"8312",-85.39
"8313",-79.38
"8314",-67.57
"8315",-49.55
"8316",-24.9
"8317",6.35
"8318",42.76
"8319",81.09
"8320",116.34
"8321",143.43
"8322",159.01
"8323",162.66
"8324",156.76
"8325",145.06
"8326",131.1
"8327",117.2
"8328",104.76
"8329",94.99
"8330",89.41
"8331",89.5
"8332",95.67
"8333",106.27
"8334",117.67
"8335",125.4
"8336",125.44
"8337",115.75
"8338",96.78
"8339",71.33
"8340",43.76
"8341",18.78
"8342",0.22
"8343",-9.97
"8344",-12.22
"8345",-9.33
"8346",-5.23
"8347",-3.71
"8348",-7.22
"8349",-16.16
"8350",-29.19
"8351",-43.79
"8352",-57.32
"8353",-67.7
"8354",-73.9
"8355",-76.06
"8356",-75.52
